# WAVELENGTH COUNTS
1801.000	0.000
1801.346	0.201
1801.692	0.236
1802.039	0.271
1802.385	0.313
1802.731	0.484
1803.077	0.634
1803.423	0.633
1803.770	0.655
1804.116	0.790
1804.462	1.068
1804.808	1.246
1805.154	1.133
1805.501	0.767
1805.847	0.315
1806.193	0.105
1806.539	0.211
1806.885	0.350
1807.232	0.391
1807.578	0.480
1807.924	0.719
1808.270	0.937
1808.616	0.871
1808.963	0.694
1809.309	0.712
1809.655	0.803
1810.001	0.696
1810.347	0.404
1810.694	0.146
1811.040	0.127
1811.386	0.239
1811.732	0.289
1812.078	0.224
1812.425	0.104
1812.771	0.078
1813.117	0.130
1813.463	0.305
1813.809	0.596
1814.156	0.817
1814.502	0.764
1814.848	0.459
1815.194	0.167
1815.540	0.039
1815.887	0.043
1816.233	0.115
1816.579	0.182
1816.925	0.260
1817.271	0.399
1817.618	0.512
1817.964	0.471
1818.310	0.268
1818.656	0.152
1819.002	0.188
1819.349	0.215
1819.695	0.146
1820.041	0.046
1820.387	0.003
1820.733	0.002
1821.080	0.004
1821.426	0.004
1821.772	0.002
1822.118	0.002
1822.464	0.026
1822.811	0.142
1823.157	0.373
1823.503	0.632
1823.849	0.785
1824.195	0.741
1824.542	0.538
1824.888	0.307
1825.234	0.146
1825.580	0.071
1825.926	0.032
1826.273	0.007
1826.619	0.013
1826.965	0.045
1827.311	0.070
1827.657	0.065
1828.004	0.034
1828.350	0.009
1828.696	0.002
1829.042	0.005
1829.388	0.009
1829.735	0.009
1830.081	0.006
1830.427	0.002
1830.773	0.002
1831.119	0.002
1831.466	0.008
1831.812	0.015
1832.158	0.016
1832.504	0.010
1832.850	0.007
1833.197	0.027
1833.543	0.054
1833.889	0.058
1834.235	0.036
1834.581	0.010
1834.928	0.001
1835.274	0.000
1835.620	0.000
1835.966	0.000
1836.312	0.000
1836.659	0.000
1837.005	0.000
1837.351	0.000
1837.697	0.000
1838.043	0.000
1838.390	0.002
1838.736	0.004
1839.082	0.005
1839.428	0.003
1839.774	0.001
1840.121	0.000
1840.467	0.000
1840.813	0.000
1841.159	0.000
1841.505	0.000
1841.852	0.000
1842.198	0.000
1842.544	0.003
1842.890	0.008
1843.236	0.011
1843.583	0.013
1843.929	0.045
1844.275	0.133
1844.621	0.234
1844.967	0.280
1845.314	0.227
1845.660	0.125
1846.006	0.042
1846.352	0.005
1846.698	0.001
1847.045	0.000
1847.391	0.000
1847.737	0.000
1848.083	0.000
1848.429	0.000
1848.776	0.000
1849.122	0.005
1849.468	0.012
1849.814	0.014
1850.160	0.009
1850.507	0.003
1850.853	0.036
1851.199	0.135
1851.545	0.233
1851.891	0.239
1852.238	0.146
1852.584	0.047
1852.930	0.007
1853.276	0.000
1853.622	0.000
1853.969	0.000
1854.315	0.000
1854.661	0.006
1855.007	0.031
1855.353	0.056
1855.700	0.057
1856.046	0.031
1856.392	0.006
1856.738	0.000
1857.084	0.000
1857.431	0.012
1857.777	0.056
1858.123	0.097
1858.469	0.098
1858.815	0.058
1859.162	0.016
1859.508	0.003
1859.854	0.000
1860.200	0.000
1860.546	0.000
1860.893	0.026
1861.239	0.217
1861.585	0.595
1861.931	1.001
1862.277	1.046
1862.624	0.703
1862.970	0.401
1863.316	0.336
1863.662	0.361
1864.008	0.232
1864.355	0.062
1864.701	0.015
1865.047	0.203
1865.393	0.805
1865.739	1.689
1866.086	2.094
1866.432	1.636
1866.778	0.759
1867.124	0.165
1867.470	0.021
1867.817	0.000
1868.163	0.000
1868.509	0.001
1868.855	0.001
1869.201	0.000
1869.548	0.000
1869.894	0.000
1870.240	0.000
1870.586	0.000
1870.932	0.000
1871.279	0.000
1871.625	0.000
1871.971	0.000
1872.317	0.000
1872.663	0.000
1873.010	0.000
1873.356	0.000
1873.702	0.000
1874.048	0.000
1874.394	0.001
1874.741	0.001
1875.087	0.001
1875.433	0.001
1875.779	0.001
1876.125	0.001
1876.472	0.001
1876.818	0.000
1877.164	0.009
1877.510	0.041
1877.856	0.123
1878.203	1.090
1878.549	3.595
1878.895	5.429
1879.241	6.420
1879.587	7.911
1879.934	8.608
1880.280	6.916
1880.626	2.899
1880.972	0.297
1881.318	0.834
1881.665	5.040
1882.011	11.897
1882.357	15.678
1882.703	13.853
1883.049	8.339
1883.396	3.885
1883.742	1.513
1884.088	0.151
1884.434	0.411
1884.780	1.511
1885.127	2.364
1885.473	4.082
1885.819	7.180
1886.165	8.705
1886.511	6.891
1886.858	4.462
1887.204	12.303
1887.550	34.406
1887.896	57.246
1888.242	63.964
1888.589	52.932
1888.935	34.787
1889.281	19.104
1889.627	7.781
1889.973	1.302
1890.320	0.187
1890.666	1.242
1891.012	2.424
1891.358	2.568
1891.704	1.530
1892.051	0.377
1892.397	0.132
1892.743	0.390
1893.089	0.654
1893.435	0.649
1893.782	1.995
1894.128	6.960
1894.474	20.462
1894.820	59.622
1895.166	108.030
1895.513	124.297
1895.859	99.339
1896.205	63.024
1896.551	51.169
1896.897	45.914
1897.244	29.652
1897.590	11.695
1897.936	1.312
1898.282	0.269
1898.628	0.253
1898.975	0.123
1899.321	0.007
1899.667	0.000
1900.013	0.000
1900.359	0.005
1900.706	0.478
1901.052	2.004
1901.398	6.464
1901.744	10.573
1902.090	10.251
1902.437	5.817
1902.783	1.231
1903.129	0.262
1903.475	2.526
1903.821	5.945
1904.168	7.112
1904.514	4.868
1904.860	1.446
1905.206	0.033
1905.552	0.000
1905.899	0.000
1906.245	0.000
1906.591	0.004
1906.937	1.519
1907.283	16.172
1907.630	46.285
1907.976	81.979
1908.322	89.967
1908.668	71.437
1909.014	75.513
1909.361	95.261
1909.707	102.388
1910.053	69.677
1910.399	28.247
1910.745	10.862
1911.092	2.754
1911.438	1.786
1911.784	1.831
1912.130	2.995
1912.476	3.498
1912.823	2.400
1913.169	0.796
1913.515	0.231
1913.861	0.013
1914.207	0.071
1914.554	4.661
1914.900	26.046
1915.246	55.350
1915.592	63.530
1915.938	42.465
1916.285	13.364
1916.631	3.604
1916.977	60.804
1917.323	223.465
1917.669	420.382
1918.016	536.377
1918.362	495.373
1918.708	342.392
1919.054	176.046
1919.400	54.232
1919.747	7.010
1920.093	0.070
1920.439	0.000
1920.785	0.140
1921.131	4.006
1921.478	43.251
1921.824	143.312
1922.170	276.174
1922.516	383.352
1922.862	419.209
1923.209	351.643
1923.555	212.987
1923.901	77.278
1924.247	14.791
1924.593	95.595
1924.940	326.235
1925.286	580.220
1925.632	651.168
1925.978	512.911
1926.324	300.754
1926.671	145.706
1927.017	54.472
1927.363	28.803
1927.709	60.264
1928.055	72.465
1928.402	54.303
1928.748	70.096
1929.094	173.438
1929.440	277.581
1929.786	266.778
1930.133	158.094
1930.479	55.055
1930.825	17.214
1931.171	22.827
1931.517	55.353
1931.864	213.148
1932.210	381.738
1932.556	444.237
1932.902	447.515
1933.248	403.039
1933.595	329.603
1933.941	182.581
1934.287	189.688
1934.633	505.695
1934.979	860.911
1935.326	946.797
1935.672	718.191
1936.018	392.219
1936.364	205.343
1936.710	194.944
1937.057	284.667
1937.403	326.787
1937.749	254.194
1938.095	208.522
1938.441	208.049
1938.788	191.252
1939.134	103.966
1939.480	53.674
1939.826	198.217
1940.172	407.789
1940.519	479.991
1940.865	360.511
1941.211	193.285
1941.557	261.478
1941.903	653.315
1942.250	1098.839
1942.596	1339.176
1942.942	1215.789
1943.288	859.441
1943.634	555.137
1943.981	344.065
1944.327	235.419
1944.673	189.557
1945.019	293.344
1945.365	527.357
1945.712	665.002
1946.058	771.080
1946.404	873.361
1946.750	849.784
1947.096	684.896
1947.443	530.797
1947.789	492.525
1948.135	480.161
1948.481	495.455
1948.827	529.247
1949.174	612.742
1949.520	673.340
1949.866	766.104
1950.212	791.072
1950.558	738.237
1950.905	872.312
1951.251	1117.968
1951.597	1250.543
1951.943	1105.192
1952.289	916.275
1952.636	798.175
1952.982	683.350
1953.328	628.404
1953.674	612.698
1954.020	605.527
1954.367	600.039
1954.713	611.163
1955.059	598.776
1955.405	516.412
1955.751	447.431
1956.098	445.210
1956.444	424.640
1956.790	397.029
1957.136	456.599
1957.482	482.699
1957.829	460.329
1958.175	454.473
1958.521	442.646
1958.867	386.995
1959.213	405.549
1959.560	628.827
1959.906	1018.994
1960.252	1210.396
1960.598	1062.521
1960.944	915.941
1961.291	997.565
1961.637	1177.514
1961.983	1208.020
1962.329	1005.011
1962.675	767.335
1963.022	579.167
1963.368	513.918
1963.714	635.170
1964.060	722.384
1964.406	854.243
1964.753	957.784
1965.099	1084.639
1965.445	1086.556
1965.791	1090.394
1966.137	1184.717
1966.484	1330.663
1966.830	1427.696
1967.176	1413.362
1967.522	1302.810
1967.868	1190.203
1968.215	1217.039
1968.561	1375.637
1968.907	1502.707
1969.253	1556.168
1969.599	1607.881
1969.946	1686.234
1970.292	1726.644
1970.638	1597.600
1970.984	1355.863
1971.330	1072.041
1971.677	944.647
1972.023	1042.483
1972.369	1334.678
1972.715	1596.034
1973.061	1743.572
1973.408	1655.411
1973.754	1394.311
1974.100	1217.832
1974.446	1359.188
1974.792	1692.689
1975.139	1853.554
1975.485	1697.945
1975.831	1588.467
1976.177	1719.379
1976.523	1959.954
1976.870	2078.052
1977.216	1984.416
1977.562	1909.033
1977.908	1920.704
1978.254	1967.430
1978.601	2010.075
1978.947	1977.934
1979.293	1679.006
1979.639	1252.289
1979.985	911.332
1980.332	991.767
1980.678	1418.694
1981.024	1842.921
1981.370	2136.811
1981.716	2198.433
1982.063	2199.367
1982.409	2074.541
1982.755	1905.552
1983.101	1885.701
1983.447	2055.823
1983.794	2240.360
1984.140	2281.441
1984.486	2205.130
1984.832	2032.209
1985.178	1931.766
1985.525	2001.871
1985.871	2168.589
1986.217	2132.927
1986.563	1706.695
1986.909	1367.230
1987.256	1430.422
1987.602	1807.867
1987.948	2133.303
1988.294	2220.255
1988.640	2267.231
1988.987	2278.129
1989.333	2132.845
1989.679	1775.704
1990.025	1435.586
1990.371	1362.153
1990.718	1641.505
1991.064	2019.277
1991.410	2233.308
1991.756	2296.581
1992.102	2280.315
1992.449	2301.182
1992.795	2332.976
1993.141	2337.559
1993.487	2240.609
1993.833	2034.533
1994.180	1872.389
1994.526	1897.514
1994.872	2036.137
1995.218	2015.731
1995.564	1915.984
1995.911	1894.271
1996.257	1861.553
1996.603	1785.129
1996.949	1711.904
1997.295	1728.635
1997.642	1602.449
1997.988	1349.581
1998.334	1234.690
1998.680	1284.476
1999.026	1348.934
1999.373	1290.796
1999.719	1208.959
2000.065	1124.211
2000.411	1043.685
2000.757	933.375
2001.104	823.641
2001.450	743.763
2001.796	681.000
2002.142	605.873
2002.488	498.643
2002.835	468.074
2003.181	534.872
2003.527	600.829
2003.873	610.667
2004.219	590.128
2004.566	565.211
2004.912	544.096
2005.258	498.655
2005.604	461.450
2005.950	523.789
2006.297	614.721
2006.643	740.363
2006.989	834.925
2007.335	891.573
2007.681	986.393
2008.028	1064.062
2008.374	1211.737
2008.720	1399.496
2009.066	1461.968
2009.412	1393.661
2009.759	1191.795
2010.105	1044.212
2010.451	966.059
2010.797	918.086
2011.143	912.977
2011.490	897.776
2011.836	895.153
2012.182	879.379
2012.528	880.032
2012.874	867.967
2013.221	847.208
2013.567	838.171
2013.913	842.561
2014.259	908.893
2014.605	928.298
2014.952	960.167
2015.298	942.736
2015.644	961.576
2015.990	967.996
2016.336	897.937
2016.683	840.666
2017.029	845.091
2017.375	991.850
2017.721	1066.965
2018.067	1132.553
2018.414	1115.901
2018.760	1178.892
2019.106	1233.578
2019.452	1266.438
2019.798	1329.264
2020.145	1323.931
2020.491	1370.987
2020.837	1337.140
2021.183	1408.849
2021.529	1533.207
2021.876	1635.520
2022.222	1745.331
2022.568	1716.155
2022.914	1710.024
2023.260	1678.043
2023.607	1714.028
2023.953	1840.714
2024.299	1867.725
2024.645	1903.601
2024.991	1937.796
2025.338	1993.635
2025.684	2084.755
2026.030	2106.622
2026.376	2132.997
2026.722	2167.354
2027.069	2165.088
2027.415	2129.302
2027.761	2013.802
2028.107	1902.698
2028.453	1881.610
2028.800	1957.622
2029.146	2107.398
2029.492	2236.395
2029.838	2273.463
2030.184	2244.971
2030.531	2212.069
2030.877	2221.395
2031.223	2273.892
2031.569	2307.990
2031.915	2318.796
2032.262	2317.740
2032.608	2255.413
2032.954	2161.870
2033.300	2122.212
2033.646	2177.667
2033.993	2272.726
2034.339	2309.287
2034.685	2311.532
2035.031	2314.972
2035.377	2317.454
2035.724	2316.967
2036.070	2316.096
2036.416	2313.225
2036.762	2309.894
2037.108	2307.069
2037.455	2302.555
2037.801	2264.841
2038.147	2221.252
2038.493	2208.752
2038.839	2226.327
2039.186	2245.294
2039.532	2170.018
2039.878	2039.635
2040.224	1971.555
2040.570	2020.702
2040.917	2126.233
2041.263	2180.089
2041.609	2180.613
2041.955	2184.582
2042.301	2183.785
2042.648	2165.060
2042.994	2147.337
2043.340	2119.902
2043.686	2084.246
2044.032	2057.825
2044.379	2067.234
2044.725	2118.759
2045.071	2169.204
2045.417	2191.732
2045.763	2201.512
2046.110	2194.867
2046.456	2173.683
2046.802	2131.029
2047.148	2087.109
2047.494	2050.043
2047.841	2001.782
2048.187	1942.975
2048.533	1907.118
2048.879	1869.142
2049.225	1826.649
2049.572	1785.179
2049.918	1710.384
2050.264	1649.199
2050.610	1624.281
2050.956	1617.521
2051.303	1610.491
2051.649	1565.254
2051.995	1524.887
2052.341	1529.705
2052.687	1491.982
2053.034	1480.219
2053.380	1443.710
2053.726	1388.451
2054.072	1395.605
2054.418	1365.101
2054.765	1404.049
2055.111	1415.097
2055.457	1431.825
2055.803	1444.275
2056.149	1368.125
2056.496	1360.212
2056.842	1350.390
2057.188	1432.221
2057.534	1473.715
2057.880	1526.312
2058.227	1583.401
2058.573	1631.770
2058.919	1703.972
2059.265	1779.847
2059.611	1902.343
2059.958	1955.082
2060.304	1957.112
2060.650	1877.901
2060.996	1794.068
2061.342	1759.790
2061.689	1737.724
2062.035	1707.392
2062.381	1617.170
2062.727	1565.774
2063.073	1562.305
2063.420	1591.930
2063.766	1609.922
2064.112	1599.901
2064.458	1597.401
2064.804	1588.600
2065.151	1605.661
2065.497	1572.348
2065.843	1547.124
2066.189	1530.628
2066.535	1590.305
2066.882	1631.527
2067.228	1676.487
2067.574	1675.856
2067.920	1701.296
2068.266	1692.419
2068.613	1702.003
2068.959	1715.530
2069.305	1707.886
2069.651	1727.504
2069.997	1715.577
2070.344	1751.207
2070.690	1745.764
2071.036	1801.688
2071.382	1816.441
2071.728	1866.346
2072.075	1886.937
2072.421	1923.949
2072.767	1942.088
2073.113	1918.334
2073.459	1951.378
2073.806	1951.042
2074.152	1998.113
2074.498	1974.807
2074.844	1968.579
2075.190	1984.198
2075.537	2006.982
2075.883	2064.101
2076.229	2058.453
2076.575	2069.646
2076.921	2058.682
2077.268	1994.845
2077.614	1948.072
2077.960	1958.072
2078.306	2063.470
2078.652	2164.799
2078.999	2211.224
2079.345	2244.474
2079.691	2251.993
2080.037	2259.652
2080.383	2256.956
2080.730	2254.506
2081.076	2242.989
2081.422	2218.418
2081.768	2202.156
2082.114	2191.421
2082.461	2179.904
2082.807	2170.888
2083.153	2171.294
2083.499	2182.189
2083.845	2189.965
2084.192	2136.174
2084.538	2059.014
2084.884	2032.361
2085.230	2085.492
2085.576	2160.124
2085.923	2181.851
2086.269	2188.820
2086.615	2203.182
2086.961	2227.477
2087.307	2233.469
2087.654	2239.279
2088.000	2236.072
2088.346	2234.855
2088.692	2235.431
2089.038	2237.254
2089.385	2224.843
2089.731	2188.789
2090.077	2181.375
2090.423	2202.368
2090.769	2247.226
2091.116	2265.378
2091.462	2270.926
2091.808	2274.619
2092.154	2265.646
2092.500	2264.122
2092.847	2264.682
2093.193	2235.866
2093.539	2161.430
2093.885	2123.997
2094.231	2171.962
2094.578	2257.930
2094.924	2304.080
2095.270	2306.115
2095.616	2309.016
2095.962	2311.936
2096.309	2312.590
2096.655	2307.052
2097.001	2299.038
2097.347	2297.319
2097.693	2298.524
2098.040	2239.425
2098.386	2105.585
2098.732	2032.266
2099.078	2095.556
2099.424	2231.160
2099.771	2278.929
2100.117	2243.026
2100.463	2234.368
2100.809	2258.110
2101.155	2190.080
2101.502	2071.522
2101.848	2047.397
2102.194	2152.768
2102.540	2281.093
2102.886	2311.625
2103.233	2310.143
2103.579	2306.421
2103.925	2303.142
2104.271	2292.680
2104.617	2275.348
2104.964	2258.158
2105.310	2256.212
2105.656	2268.017
2106.002	2272.785
2106.348	2266.517
2106.695	2260.341
2107.041	2261.291
2107.387	2265.294
2107.733	2262.346
2108.079	2258.899
2108.426	2254.246
2108.772	2249.603
2109.118	2233.269
2109.464	2197.833
2109.810	2175.107
2110.157	2185.356
2110.503	2216.584
2110.849	2233.829
2111.195	2189.554
2111.541	2124.021
2111.888	2090.196
2112.234	2110.557
2112.580	2165.814
2112.926	2200.313
2113.272	2221.865
2113.619	2229.616
2113.965	2228.131
2114.311	2223.140
2114.657	2213.017
2115.003	2201.289
2115.350	2192.527
2115.696	2179.734
2116.042	2169.408
2116.388	2169.882
2116.734	2179.376
2117.081	2187.530
2117.427	2181.731
2117.773	2152.058
2118.119	2043.944
2118.465	1957.448
2118.812	1974.168
2119.158	2054.423
2119.504	2095.558
2119.850	2056.459
2120.196	2053.447
2120.543	2089.783
2120.889	2121.976
2121.235	2135.744
2121.581	2136.830
2121.927	2143.082
2122.274	2148.982
2122.620	2149.357
2122.966	2148.234
2123.312	2145.236
2123.658	2127.488
2124.005	2056.756
2124.351	1981.616
2124.697	1975.383
2125.043	2044.833
2125.389	2122.012
2125.736	2145.204
2126.082	2146.363
2126.428	2143.862
2126.774	2135.633
2127.120	2056.893
2127.467	1938.652
2127.813	1893.507
2128.159	1962.435
2128.505	2073.349
2128.851	2115.815
2129.198	2115.394
2129.544	2114.158
2129.890	2111.353
2130.236	2105.471
2130.582	2099.277
2130.929	2095.484
2131.275	2093.421
2131.621	2090.875
2131.967	2087.221
2132.313	2083.613
2132.660	2081.448
2133.006	2080.125
2133.352	2078.273
2133.698	2075.751
2134.044	2073.808
2134.391	2074.219
2134.737	2075.872
2135.083	2068.305
2135.429	2032.772
2135.775	2001.686
2136.122	2005.898
2136.468	2040.818
2136.814	2070.451
2137.160	2072.535
2137.506	2070.879
2137.853	2068.436
2138.199	2066.078
2138.545	2063.866
2138.891	2062.405
2139.237	2061.411
2139.584	2060.753
2139.930	2062.283
2140.276	2064.547
2140.622	2065.494
2140.968	2064.210
2141.315	2061.846
2141.661	2059.934
2142.007	2058.154
2142.353	2054.664
2142.699	2050.660
2143.046	2047.586
2143.392	2046.400
2143.738	2045.167
2144.084	2038.175
2144.430	2030.481
2144.777	2026.485
2145.123	2025.624
2145.469	2022.701
2145.815	2016.547
2146.161	2012.750
2146.508	2010.811
2146.854	2007.188
2147.200	2001.860
2147.546	1989.839
2147.892	1977.050
2148.239	1971.235
2148.585	1972.858
2148.931	1975.487
2149.277	1959.974
2149.623	1939.540
2149.970	1930.460
2150.316	1937.231
2150.662	1919.339
2151.008	1845.577
2151.354	1772.716
2151.701	1768.307
2152.047	1823.391
2152.393	1851.302
2152.739	1841.995
2153.085	1833.333
2153.432	1853.146
2153.778	1867.380
2154.124	1865.378
2154.470	1876.144
2154.816	1896.189
2155.163	1917.199
2155.509	1924.496
2155.855	1929.423
2156.201	1935.684
2156.547	1940.536
2156.894	1942.494
2157.240	1943.401
2157.586	1935.389
2157.932	1926.816
2158.278	1915.888
2158.625	1869.352
2158.971	1827.061
2159.317	1813.038
2159.663	1831.276
2160.009	1860.354
2160.356	1864.046
2160.702	1865.061
2161.048	1860.749
2161.394	1869.701
2161.740	1891.248
2162.087	1890.218
2162.433	1875.667
2162.779	1801.679
2163.125	1658.867
2163.471	1585.352
2163.818	1656.145
2164.164	1813.974
2164.510	1903.719
2164.856	1907.620
2165.202	1907.036
2165.549	1901.990
2165.895	1890.301
2166.241	1873.494
2166.587	1855.710
2166.933	1850.398
2167.280	1858.979
2167.626	1871.478
2167.972	1836.751
2168.318	1742.491
2168.664	1688.707
2169.011	1724.915
2169.357	1814.185
2169.703	1864.185
2170.049	1863.261
2170.395	1863.464
2170.742	1864.944
2171.088	1867.207
2171.434	1867.037
2171.780	1863.280
2172.126	1841.612
2172.473	1811.489
2172.819	1799.476
2173.165	1808.857
2173.511	1820.578
2173.857	1791.250
2174.204	1741.718
2174.550	1728.551
2174.896	1758.111
2175.242	1806.739
2175.588	1799.669
2175.935	1744.533
2176.281	1720.938
2176.627	1755.350
2176.973	1822.002
2177.319	1854.238
2177.666	1845.759
2178.012	1816.115
2178.358	1790.674
2178.704	1747.821
2179.050	1709.133
2179.397	1708.528
2179.743	1748.031
2180.089	1803.136
2180.435	1816.228
2180.781	1813.148
2181.128	1809.922
2181.474	1806.315
2181.820	1801.937
2182.166	1784.679
2182.512	1747.939
2182.859	1629.278
2183.205	1531.163
2183.551	1535.615
2183.897	1624.426
2184.243	1640.739
2184.590	1529.404
2184.936	1486.239
2185.282	1565.500
2185.628	1701.794
2185.974	1770.455
2186.321	1773.203
2186.667	1741.209
2187.013	1696.631
2187.359	1657.154
2187.705	1621.659
2188.052	1616.264
2188.398	1648.421
2188.744	1703.995
2189.090	1733.581
2189.436	1727.340
2189.783	1705.800
2190.129	1661.589
2190.475	1637.589
2190.821	1657.475
2191.167	1709.080
2191.514	1743.264
2191.860	1745.080
2192.206	1744.365
2192.552	1742.766
2192.898	1741.841
2193.245	1741.728
2193.591	1740.127
2193.937	1710.459
2194.283	1628.994
2194.629	1545.710
2194.976	1538.664
2195.322	1609.688
2195.668	1678.583
2196.014	1680.856
2196.360	1650.814
2196.707	1638.405
2197.053	1647.806
2197.399	1655.739
2197.745	1563.902
2198.091	1447.833
2198.438	1416.810
2198.784	1464.783
2199.130	1516.070
2199.476	1476.478
2199.822	1426.997
2200.169	1413.126
2200.515	1444.828
2200.861	1512.914
2201.207	1560.293
2201.553	1570.755
2201.900	1562.108
2202.246	1558.403
2202.592	1566.665
2202.938	1584.437
2203.284	1595.436
2203.631	1579.677
2203.977	1559.009
2204.323	1505.166
2204.669	1458.838
2205.015	1466.203
2205.362	1528.131
2205.708	1605.243
2206.054	1616.798
2206.400	1595.578
2206.746	1574.055
2207.093	1560.575
2207.439	1569.590
2207.785	1591.590
2208.131	1614.597
2208.477	1629.578
2208.824	1627.643
2209.170	1625.502
2209.516	1624.516
2209.862	1611.928
2210.208	1598.552
2210.555	1591.527
2210.901	1594.702
2211.247	1603.398
2211.593	1608.241
2211.939	1615.282
2212.286	1616.578
2212.632	1615.051
2212.978	1614.569
2213.324	1612.790
2213.670	1608.693
2214.017	1601.264
2214.363	1572.132
2214.709	1544.607
2215.055	1541.910
2215.401	1525.785
2215.748	1491.246
2216.094	1455.401
2216.440	1473.313
2216.786	1527.862
2217.132	1563.366
2217.479	1579.164
2217.825	1573.578
2218.171	1566.024
2218.517	1564.152
2218.863	1567.836
2219.210	1565.527
2219.556	1557.218
2219.902	1550.775
2220.248	1549.045
2220.594	1548.370
2220.941	1526.734
2221.287	1498.629
2221.633	1487.641
2221.979	1500.716
2222.325	1520.873
2222.672	1526.900
2223.018	1529.211
2223.364	1531.440
2223.710	1532.140
2224.056	1529.653
2224.403	1524.129
2224.749	1503.285
2225.095	1481.839
2225.441	1474.614
2225.787	1484.556
2226.134	1486.287
2226.480	1471.315
2226.826	1459.947
2227.172	1463.908
2227.518	1481.633
2227.865	1494.862
2228.211	1503.068
2228.557	1503.408
2228.903	1502.442
2229.249	1501.984
2229.596	1502.207
2229.942	1501.901
2230.288	1497.044
2230.634	1490.054
2230.980	1472.090
2231.327	1449.846
2231.673	1433.371
2232.019	1422.679
2232.365	1425.219
2232.711	1435.599
2233.058	1444.560
2233.404	1443.993
2233.750	1439.873
2234.096	1445.563
2234.442	1454.244
2234.789	1453.338
2235.135	1448.770
2235.481	1435.375
2235.827	1414.022
2236.173	1398.627
2236.520	1401.348
2236.866	1412.396
2237.212	1412.087
2237.558	1401.116
2237.904	1398.061
2238.251	1411.261
2238.597	1427.404
2238.943	1435.012
2239.289	1430.015
2239.635	1418.273
2239.982	1403.585
2240.328	1396.334
2240.674	1395.690
2241.020	1388.965
2241.366	1383.586
2241.713	1388.801
2242.059	1403.016
2242.405	1408.147
2242.751	1402.428
2243.097	1397.638
2243.444	1382.998
2243.790	1357.652
2244.136	1348.264
2244.482	1367.770
2244.828	1396.021
2245.175	1407.085
2245.521	1390.626
2245.867	1367.072
2246.213	1346.116
2246.559	1323.053
2246.906	1302.617
2247.252	1303.009
2247.598	1334.097
2247.944	1372.260
2248.290	1387.975
2248.637	1383.425
2248.983	1374.830
2249.329	1365.022
2249.675	1357.118
2250.021	1346.920
2250.368	1337.772
2250.714	1336.588
2251.060	1343.801
2251.406	1354.059
2251.752	1350.360
2252.099	1341.114
2252.445	1334.210
2252.791	1330.251
2253.137	1322.964
2253.483	1297.662
2253.830	1275.838
2254.176	1275.790
2254.522	1297.387
2254.868	1313.854
2255.214	1305.343
2255.561	1285.864
2255.907	1276.288
2256.253	1267.106
2256.599	1248.272
2256.945	1241.773
2257.292	1256.278
2257.638	1281.244
2257.984	1286.086
2258.330	1283.564
2258.676	1291.992
2259.023	1303.598
2259.369	1305.165
2259.715	1290.018
2260.061	1278.102
2260.407	1257.888
2260.754	1232.592
2261.100	1204.142
2261.446	1183.470
2261.792	1175.793
2262.138	1182.622
2262.485	1216.989
2262.831	1252.396
2263.177	1255.611
2263.523	1234.355
2263.869	1222.735
2264.216	1208.885
2264.562	1192.043
2264.908	1189.770
2265.254	1220.211
2265.600	1257.019
2265.947	1267.526
2266.293	1265.157
2266.639	1258.685
2266.985	1246.268
2267.331	1230.820
2267.678	1205.465
2268.024	1161.748
2268.370	1116.263
2268.716	1110.040
2269.062	1152.692
2269.409	1203.866
2269.755	1210.660
2270.101	1183.868
2270.447	1174.084
2270.793	1192.219
2271.140	1213.061
2271.486	1209.999
2271.832	1180.557
2272.178	1149.026
2272.524	1144.002
2272.871	1165.649
2273.217	1191.672
2273.563	1200.566
2273.909	1203.819
2274.255	1197.857
2274.602	1180.206
2274.948	1129.334
2275.294	1058.973
2275.640	1025.453
2275.986	1040.283
2276.333	1093.477
2276.679	1114.993
2277.025	1119.065
2277.371	1139.404
2277.717	1157.782
2278.064	1173.443
2278.410	1174.304
2278.756	1180.891
2279.102	1189.253
2279.448	1191.428
2279.795	1184.795
2280.141	1147.136
2280.487	1097.370
2280.833	1079.938
2281.179	1102.391
2281.526	1136.789
2281.872	1148.035
2282.218	1114.317
2282.564	1044.544
2282.910	1005.278
2283.257	1023.191
2283.603	1052.577
2283.949	1064.056
2284.295	1078.026
2284.641	1103.787
2284.988	1097.746
2285.334	1079.739
2285.680	1095.577
2286.026	1125.718
2286.372	1135.455
2286.719	1129.248
2287.065	1125.289
2287.411	1124.099
2287.757	1120.216
2288.103	1119.664
2288.450	1124.865
2288.796	1109.335
2289.142	1067.142
2289.488	1002.517
2289.834	970.117
2290.181	999.310
2290.527	1051.798
2290.873	1089.540
2291.219	1094.038
2291.565	1091.718
2291.912	1069.116
2292.258	1041.241
2292.604	1040.437
2292.950	1062.930
2293.296	1069.025
2293.643	1049.455
2293.989	1042.652
2294.335	1037.180
2294.681	1022.302
2295.027	999.503
2295.374	986.960
2295.720	985.621
2296.066	992.213
2296.412	1017.162
2296.758	1048.985
2297.105	1069.039
2297.451	1068.353
2297.797	1030.873
2298.143	973.929
2298.489	939.565
2298.836	939.778
2299.182	965.438
2299.528	971.709
2299.874	958.566
2300.220	935.583
2300.567	927.465
2300.913	955.516
2301.259	989.903
2301.605	1006.289
2301.951	995.669
2302.298	977.852
2302.644	975.202
2302.990	970.481
2303.336	947.166
2303.682	920.060
2304.029	899.899
2304.375	905.224
2304.721	925.838
2305.067	945.549
2305.413	960.078
2305.760	962.186
2306.106	958.131
2306.452	958.169
2306.798	952.642
2307.144	932.730
2307.491	919.045
2307.837	927.833
2308.183	960.936
2308.529	982.844
2308.875	974.431
2309.222	962.489
2309.568	955.220
2309.914	961.374
2310.260	976.429
2310.606	990.142
2310.953	994.867
2311.299	988.410
2311.645	971.508
2311.991	960.143
2312.337	965.197
2312.684	980.210
2313.030	991.442
2313.376	989.560
2313.722	986.287
2314.068	983.185
2314.415	977.183
2314.761	970.723
2315.107	964.113
2315.453	942.949
2315.799	899.780
2316.146	827.652
2316.492	735.242
2316.838	668.933
2317.184	655.791
2317.530	686.956
2317.877	720.306
2318.223	745.076
2318.569	785.468
2318.915	827.610
2319.261	850.304
2319.608	855.744
2319.954	861.376
2320.300	866.456
2320.646	869.935
2320.992	872.851
2321.339	847.218
2321.685	809.042
2322.031	773.493
2322.377	768.670
2322.723	768.088
2323.070	770.190
2323.416	794.166
2323.762	828.391
2324.108	864.959
2324.454	883.103
2324.801	883.553
2325.147	859.161
2325.493	847.384
2325.839	851.668
2326.185	862.226
2326.532	868.238
2326.878	876.354
2327.224	886.005
2327.570	885.256
2327.916	850.238
2328.263	804.970
2328.609	785.030
2328.955	800.653
2329.301	835.898
2329.647	852.841
2329.994	860.379
2330.340	851.119
2330.686	829.444
2331.032	805.690
2331.378	786.310
2331.725	779.256
2332.071	786.213
2332.417	802.307
2332.763	818.163
2333.109	826.624
2333.456	820.207
2333.802	806.504
2334.148	794.568
2334.494	776.752
2334.840	758.942
2335.187	757.197
2335.533	766.969
2335.879	777.111
2336.225	780.017
2336.571	792.051
2336.918	805.271
2337.264	803.605
2337.610	787.550
2337.956	759.319
2338.302	712.138
2338.649	681.266
2338.995	687.538
2339.341	694.026
2339.687	664.048
2340.033	616.731
2340.380	612.854
2340.726	630.940
2341.072	647.636
2341.418	645.864
2341.764	651.475
2342.111	675.663
2342.457	706.939
2342.803	735.130
2343.149	731.167
2343.495	721.614
2343.842	727.821
2344.188	730.506
2344.534	697.795
2344.880	657.994
2345.226	650.745
2345.573	680.738
2345.919	708.271
2346.265	700.055
2346.611	686.228
2346.957	668.590
2347.304	652.110
2347.650	629.968
2347.996	616.753
2348.342	641.172
2348.688	671.148
2349.035	677.358
2349.381	646.179
2349.727	615.243
2350.073	603.143
2350.419	585.552
2350.766	581.792
2351.112	564.844
2351.458	546.668
2351.804	506.066
2352.150	462.011
2352.497	485.594
2352.843	535.287
2353.189	593.956
2353.535	628.954
2353.881	654.081
2354.228	677.202
2354.574	675.975
2354.920	673.071
2355.266	653.905
2355.612	607.100
2355.959	577.463
2356.305	588.654
2356.651	621.317
2356.997	635.596
2357.343	640.776
2357.690	642.164
2358.036	587.067
2358.382	503.635
2358.728	485.002
2359.074	557.067
2359.421	650.917
2359.767	687.355
2360.113	682.336
2360.459	678.718
2360.805	675.712
2361.152	647.959
2361.498	619.617
2361.844	619.388
2362.190	644.477
2362.536	666.400
2362.883	655.109
2363.229	620.091
2363.575	556.815
2363.921	513.195
2364.267	526.242
2364.614	582.968
2364.960	635.623
2365.306	656.606
2365.652	651.912
2365.998	635.915
2366.345	627.043
2366.691	595.207
2367.037	539.425
2367.383	499.782
2367.729	518.224
2368.076	558.511
2368.422	539.125
2368.768	504.816
2369.114	510.322
2369.460	539.963
2369.807	517.091
2370.153	412.074
2370.499	321.676
2370.845	272.863
2371.191	267.259
2371.538	305.899
2371.884	380.136
2372.230	454.735
2372.576	480.722
2372.922	494.145
2373.269	518.328
2373.615	546.244
2373.961	563.579
2374.307	570.762
2374.653	572.166
2375.000	567.915
2375.346	571.943
2375.692	557.990
2376.038	489.907
2376.384	411.569
2376.731	390.260
2377.077	437.347
2377.423	472.979
2377.769	418.165
2378.115	363.357
2378.462	384.532
2378.808	464.086
2379.154	506.945
2379.500	486.754
2379.846	469.112
2380.193	464.706
2380.539	476.101
2380.885	498.696
2381.231	532.929
2381.577	552.253
2381.924	540.468
2382.270	514.439
2382.616	469.173
2382.962	402.858
2383.308	338.047
2383.655	287.977
2384.001	287.015
2384.347	340.277
2384.693	423.026
2385.039	482.426
2385.386	447.813
2385.732	371.416
2386.078	333.255
2386.424	369.466
2386.770	440.422
2387.117	474.059
2387.463	444.359
2387.809	375.520
2388.155	350.180
2388.501	395.948
2388.848	467.557
2389.194	495.508
2389.540	480.383
2389.886	470.943
2390.232	468.522
2390.579	451.451
2390.925	377.003
2391.271	298.233
2391.617	297.988
2391.963	366.666
2392.310	441.387
2392.656	460.037
2393.002	461.644
2393.348	471.766
2393.694	467.317
2394.041	441.803
2394.387	416.790
2394.733	420.846
2395.079	444.400
2395.425	458.233
2395.772	452.776
2396.118	404.799
2396.464	330.414
2396.810	267.830
2397.156	277.592
2397.503	342.538
2397.849	394.246
2398.195	419.275
2398.541	422.880
2398.887	433.962
2399.234	441.607
2399.580	431.328
2399.926	383.963
2400.272	344.953
2400.618	353.703
2400.965	401.137
2401.311	431.465
2401.657	420.406
2402.003	413.554
2402.349	419.308
2402.696	423.534
2403.042	416.813
2403.388	394.156
2403.734	323.334
2404.080	252.321
2404.427	245.196
2404.773	305.470
2405.119	367.317
2405.465	370.551
2405.811	354.996
2406.158	334.608
2406.504	288.715
2406.850	246.657
2407.196	215.053
2407.542	227.020
2407.889	277.348
2408.235	331.994
2408.581	375.504
2408.927	374.959
2409.273	323.413
2409.620	253.080
2409.966	226.460
2410.312	265.858
2410.658	331.009
2411.004	345.006
2411.351	305.876
2411.697	264.101
2412.043	259.663
2412.389	294.137
2412.735	330.875
2413.082	332.230
2413.428	302.098
2413.774	240.376
2414.120	192.473
2414.466	201.030
2414.813	244.608
2415.159	255.982
2415.505	188.147
2415.851	108.671
2416.197	101.931
2416.544	172.849
2416.890	254.836
2417.236	293.811
2417.582	289.336
2417.928	239.767
2418.275	160.810
2418.621	84.834
2418.967	46.757
2419.313	73.556
2419.659	143.491
2420.006	224.471
2420.352	275.561
2420.698	289.831
2421.044	293.446
2421.390	283.597
2421.737	261.650
2422.083	247.582
2422.429	252.383
2422.775	271.326
2423.121	279.221
2423.468	244.889
2423.814	194.348
2424.160	173.807
2424.506	191.127
2424.852	220.789
2425.199	231.509
2425.545	230.059
2425.891	201.979
2426.237	169.672
2426.583	175.350
2426.930	217.346
2427.276	254.570
2427.622	261.767
2427.968	263.600
2428.314	263.632
2428.661	259.203
2429.007	251.435
2429.353	243.131
2429.699	237.405
2430.045	237.718
2430.392	242.051
2430.738	245.361
2431.084	244.767
2431.430	242.451
2431.776	240.591
2432.123	231.789
2432.469	211.040
2432.815	168.804
2433.161	133.551
2433.507	133.192
2433.854	156.455
2434.200	161.104
2434.546	119.867
2434.892	64.050
2435.238	25.393
2435.585	11.966
2435.931	11.031
2436.277	24.532
2436.623	63.098
2436.969	119.622
2437.316	166.815
2437.662	188.004
2438.008	193.601
2438.354	195.687
2438.700	197.848
2439.047	200.033
2439.393	201.327
2439.739	200.769
2440.085	198.167
2440.431	196.264
2440.778	195.312
2441.124	193.638
2441.470	190.871
2441.816	187.769
2442.162	176.578
2442.509	150.167
2442.855	127.589
2443.201	128.931
2443.547	149.777
2443.893	165.133
2444.240	163.890
2444.586	156.700
2444.932	142.788
2445.278	112.083
2445.624	67.555
2445.971	35.111
2446.317	34.366
2446.663	46.209
2447.009	51.288
2447.355	50.752
2447.702	55.655
2448.048	75.517
2448.394	100.459
2448.740	124.348
2449.086	133.532
2449.433	115.758
2449.779	79.833
2450.125	46.679
2450.471	28.727
2450.817	21.682
2451.164	17.828
2451.510	25.909
2451.856	54.711
2452.202	88.535
2452.548	111.188
2452.895	116.879
2453.241	101.851
2453.587	81.150
2453.933	62.997
2454.279	48.470
2454.626	46.598
2454.972	61.286
2455.318	91.461
2455.664	113.552
2456.010	116.037
2456.357	111.431
2456.703	109.277
2457.049	111.681
2457.395	115.653
2457.741	116.834
2458.088	115.941
2458.434	114.237
2458.780	108.979
2459.126	102.563
2459.472	99.595
2459.819	101.686
2460.165	105.271
2460.511	104.510
2460.857	99.290
2461.203	92.396
2461.550	83.702
2461.896	68.147
2462.242	44.080
2462.588	22.932
2462.934	20.963
2463.281	38.652
2463.627	58.310
2463.973	62.897
2464.319	60.878
2464.665	64.317
2465.012	74.335
2465.358	81.219
2465.704	78.663
2466.050	75.294
2466.396	73.679
2466.743	73.425
2467.089	66.513
2467.435	51.350
2467.781	41.532
2468.127	42.641
2468.474	51.023
2468.820	57.408
2469.166	59.919
2469.512	61.193
2469.858	58.243
2470.205	53.525
2470.551	48.291
2470.897	41.188
2471.243	30.212
2471.589	16.974
2471.936	6.496
2472.282	1.220
2472.628	0.528
2472.974	4.285
2473.320	13.040
2473.667	24.429
2474.013	33.756
2474.359	37.801
2474.705	36.298
2475.051	32.117
2475.398	29.619
2475.744	31.082
2476.090	34.472
2476.436	36.150
2476.782	33.475
2477.129	27.769
2477.475	23.668
2477.821	22.956
2478.167	22.686
2478.513	20.857
2478.860	19.515
2479.206	18.233
2479.552	15.579
2479.898	10.753
2480.244	6.810
2480.591	4.928
2480.937	3.626
2481.283	3.504
2481.629	4.811
2481.975	7.777
2482.322	10.718
2482.668	11.078
2483.014	9.078
2483.360	6.032
2483.706	3.009
2484.053	1.119
2484.399	0.900
2484.745	2.509
2485.091	4.927
2485.437	6.787
2485.784	7.196
2486.130	6.277
2486.476	4.540
2486.822	2.869
2487.168	1.624
2487.515	0.858
2487.861	0.382
2488.207	0.295
2488.553	0.983
2488.899	1.666
2489.246	2.227
2489.592	2.621
2489.938	2.688
2490.284	2.532
2490.630	2.083
2490.977	1.876
2491.323	1.600
2491.669	1.021
2492.015	0.591
2492.361	0.488
2492.708	0.632
2493.054	0.695
2493.400	0.625
2493.746	0.490
2494.092	0.308
2494.439	0.109
2494.785	0.016
2495.131	0.061
2495.477	0.213
2495.823	0.380
2496.170	0.440
2496.516	0.406
2496.862	0.382
2497.208	0.389
2497.554	0.355
2497.901	0.280
2498.247	0.233
2498.593	0.201
2498.939	0.153
2499.285	0.089
2499.632	0.039
2499.978	0.015
2500.324	0.003
2500.670	0.000
2501.016	0.000
2501.363	0.000
2501.709	0.000
2502.055	0.000
2502.401	0.000
2502.747	0.000
2503.094	0.000
2503.440	0.000
2503.786	0.000
2504.132	0.000
2504.478	0.000
2504.825	0.000
2505.171	0.000
2505.517	0.000
2505.863	0.000
2506.209	0.000
2506.556	0.000
2506.902	0.000
2507.248	0.000
2507.594	0.000
2507.940	0.000
2508.287	0.000
2508.633	0.000
2508.979	0.000
2509.325	0.000
2509.671	0.000
2510.018	0.000
2510.364	0.000
2510.710	0.000
2511.056	0.000
2511.402	0.000
2511.749	0.000
2512.095	0.000
2512.441	0.000
2512.787	0.000
2513.133	0.000
2513.480	0.000
2513.826	0.000
2514.172	0.000
2514.518	0.000
2514.864	0.000
2515.211	0.000
2515.557	0.000
2515.903	0.000
2516.249	0.000
2516.595	0.000
2516.942	0.000
2517.288	0.000
2517.634	0.000
2517.980	0.000
2518.326	0.000
2518.673	0.000
2519.019	0.000
2519.365	0.000
2519.711	0.000
2520.057	0.000
2520.404	0.000
2520.750	0.000
2521.096	0.000
2521.442	0.000
2521.788	0.000
2522.135	0.000
2522.481	0.000
2522.827	0.000
2523.173	0.000
2523.519	0.000
2523.866	0.000
2524.212	0.000
2524.558	0.000
2524.904	0.000
2525.250	0.000
2525.597	0.000
2525.943	0.000
2526.289	0.000
2526.635	0.000
2526.981	0.000
2527.328	0.000
2527.674	0.000
2528.020	0.000
2528.366	0.000
2528.712	0.000
2529.059	0.000
2529.405	0.000
2529.751	0.000
2530.097	0.000
2530.443	0.000
2530.790	0.000
2531.136	0.000
2531.482	0.000
2531.828	0.000
2532.174	0.000
2532.521	0.000
2532.867	0.000
2533.213	0.000
2533.559	0.000
2533.905	0.000
2534.252	0.000
2534.598	0.000
2534.944	0.000
2535.290	0.000
2535.636	0.000
2535.983	0.000
2536.329	0.000
2536.675	0.000
2537.021	0.000
2537.367	0.000
2537.714	0.000
2538.060	0.000
2538.406	0.000
2538.752	0.000
2539.098	0.000
2539.445	0.000
2539.791	0.000
2540.137	0.000
2540.483	0.000
2540.829	0.000
2541.176	0.000
2541.522	0.000
2541.868	0.000
2542.214	0.000
2542.560	0.000
2542.907	0.000
2543.253	0.000
2543.599	0.000
2543.945	0.000
2544.291	0.000
2544.638	0.000
2544.984	0.000
2545.330	0.000
2545.676	0.000
2546.022	0.000
2546.369	0.000
2546.715	0.000
2547.061	0.000
2547.407	0.000
2547.753	0.000
2548.100	0.000
2548.446	0.000
2548.792	0.000
2549.138	0.000
2549.484	0.000
2549.831	0.000
2550.177	0.000
2550.523	0.000
2550.869	0.000
2551.215	0.000
2551.562	0.000
2551.908	0.000
2552.254	0.000
2552.600	0.000
2552.946	0.000
2553.293	0.000
2553.639	0.000
2553.985	0.000
2554.331	0.000
2554.677	0.000
2555.024	0.000
2555.370	0.000
2555.716	0.000
2556.062	0.000
2556.408	0.000
2556.755	0.000
2557.101	0.000
2557.447	0.000
2557.793	0.000
2558.139	0.000
2558.486	0.000
2558.832	0.000
2559.178	0.000
2559.524	0.000
2559.870	0.000
2560.217	0.000
2560.563	0.000
2560.909	0.000
2561.255	0.000
2561.601	0.000
2561.948	0.000
2562.294	0.000
2562.640	0.000
2562.986	0.000
2563.332	0.000
2563.679	0.000
2564.025	0.000
2564.371	0.000
2564.717	0.000
2565.063	0.000
2565.410	0.000
2565.756	0.000
2566.102	0.000
2566.448	0.000
2566.794	0.000
2567.141	0.000
2567.487	0.000
2567.833	0.000
2568.179	0.000
2568.525	0.000
2568.872	0.000
2569.218	0.000
2569.564	0.000
2569.910	0.000
2570.256	0.000
2570.603	0.000
2570.949	0.000
2571.295	0.000
2571.641	0.000
2571.987	0.000
2572.334	0.000
2572.680	0.000
2573.026	0.000
2573.372	0.000
2573.718	0.000
2574.065	0.000
2574.411	0.000
2574.757	0.000
2575.103	0.000
2575.449	0.000
2575.796	0.000
2576.142	0.000
2576.488	0.000
2576.834	0.000
2577.180	0.000
2577.527	0.000
2577.873	0.000
2578.219	0.000
2578.565	0.000
2578.911	0.000
2579.258	0.000
2579.604	0.000
2579.950	0.000
2580.296	0.000
2580.642	0.000
2580.989	0.000
2581.335	0.000
2581.681	0.000
2582.027	0.000
2582.373	0.000
2582.720	0.000
2583.066	0.000
2583.412	0.000
2583.758	0.000
2584.104	0.000
2584.451	0.000
2584.797	0.000
2585.143	0.000
2585.489	0.000
2585.835	0.000
2586.182	0.000
2586.528	0.000
2586.874	0.000
2587.220	0.000
2587.566	0.000
2587.913	0.000
2588.259	0.000
2588.605	0.000
2588.951	0.000
2589.297	0.000
2589.644	0.000
2589.990	0.000
2590.336	0.000
2590.682	0.000
2591.028	0.000
2591.375	0.000
2591.721	0.000
2592.067	0.000
2592.413	0.000
2592.759	0.000
2593.106	0.000
2593.452	0.000
2593.798	0.000
2594.144	0.000
2594.490	0.000
2594.837	0.000
2595.183	0.000
2595.529	0.000
2595.875	0.000
2596.221	0.000
2596.568	0.000
2596.914	0.000
2597.260	0.000
2597.606	0.000
