# WAVELENGTH COUNTS
1920.200	0.000
1920.546	0.000
1920.892	0.000
1921.239	0.001
1921.585	0.008
1921.931	0.023
1922.277	0.043
1922.623	0.061
1922.970	0.068
1923.316	0.056
1923.662	0.032
1924.008	0.009
1924.354	0.007
1924.701	0.047
1925.047	0.131
1925.393	0.202
1925.739	0.210
1926.085	0.157
1926.432	0.091
1926.778	0.043
1927.124	0.013
1927.470	0.017
1927.816	0.033
1928.163	0.033
1928.509	0.026
1928.855	0.050
1929.201	0.122
1929.547	0.168
1929.894	0.141
1930.240	0.072
1930.586	0.021
1930.932	0.012
1931.278	0.017
1931.625	0.066
1931.971	0.205
1932.317	0.310
1932.663	0.346
1933.009	0.346
1933.356	0.312
1933.702	0.237
1934.048	0.127
1934.394	0.232
1934.740	0.579
1935.087	0.851
1935.433	0.842
1935.779	0.580
1936.125	0.301
1936.471	0.193
1936.818	0.224
1937.164	0.325
1937.510	0.327
1937.856	0.249
1938.202	0.234
1938.549	0.234
1938.895	0.193
1939.241	0.084
1939.587	0.099
1939.933	0.336
1940.280	0.555
1940.626	0.570
1940.972	0.378
1941.318	0.232
1941.664	0.475
1942.011	1.093
1942.357	1.650
1942.703	1.846
1943.049	1.539
1943.395	1.063
1943.742	0.695
1944.088	0.437
1944.434	0.324
1944.780	0.299
1945.126	0.556
1945.473	0.903
1945.819	1.092
1946.165	1.295
1946.511	1.420
1946.857	1.305
1947.204	1.040
1947.550	0.853
1947.896	0.823
1948.242	0.827
1948.588	0.882
1948.935	0.974
1949.281	1.097
1949.627	1.266
1949.973	1.482
1950.319	1.458
1950.666	1.477
1951.012	1.968
1951.358	2.628
1951.704	2.833
1952.050	2.415
1952.397	2.118
1952.743	1.928
1953.089	1.742
1953.435	1.723
1953.781	1.715
1954.128	1.791
1954.474	1.830
1954.820	1.928
1955.166	1.905
1955.512	1.724
1955.859	1.649
1956.205	1.716
1956.551	1.676
1956.897	1.848
1957.243	2.185
1957.590	2.243
1957.936	2.271
1958.282	2.372
1958.628	2.363
1958.974	2.031
1959.321	2.591
1959.667	4.661
1960.013	7.202
1960.359	7.780
1960.705	6.795
1961.052	6.736
1961.398	8.148
1961.744	9.742
1962.090	9.522
1962.436	8.076
1962.783	6.238
1963.129	5.029
1963.475	5.403
1963.821	6.820
1964.167	8.123
1964.514	10.206
1964.860	12.323
1965.206	14.146
1965.552	14.515
1965.898	15.702
1966.245	18.494
1966.591	21.377
1966.937	23.517
1967.283	23.456
1967.629	22.229
1967.976	22.233
1968.322	25.610
1968.668	30.693
1969.014	34.207
1969.360	37.338
1969.707	40.826
1970.053	45.384
1970.399	46.974
1970.745	44.880
1971.091	38.576
1971.438	33.186
1971.784	32.890
1972.130	41.084
1972.476	54.666
1972.822	66.104
1973.169	73.715
1973.515	69.668
1973.861	61.349
1974.207	61.397
1974.553	78.305
1974.900	99.806
1975.246	106.893
1975.592	101.896
1975.938	106.822
1976.284	126.528
1976.631	150.296
1976.977	159.741
1977.323	157.672
1977.669	162.760
1978.015	173.698
1978.362	188.278
1978.708	201.343
1979.054	200.487
1979.400	168.361
1979.746	127.203
1980.093	109.058
1980.439	146.516
1980.785	219.344
1981.131	287.630
1981.477	335.664
1981.824	358.533
1982.170	372.915
1982.516	361.094
1982.862	354.055
1983.208	385.054
1983.555	447.840
1983.901	499.620
1984.247	521.566
1984.593	513.443
1984.939	494.622
1985.286	508.478
1985.632	565.331
1985.978	629.214
1986.324	594.383
1986.670	478.502
1987.017	433.826
1987.363	526.764
1987.709	690.365
1988.055	805.413
1988.401	860.373
1988.748	910.733
1989.094	929.045
1989.440	866.344
1989.786	734.225
1990.132	630.120
1990.479	675.587
1990.825	868.590
1991.171	1077.041
1991.517	1197.440
1991.863	1240.319
1992.210	1273.765
1992.556	1327.120
1992.902	1381.127
1993.248	1418.683
1993.594	1357.022
1993.941	1254.731
1994.287	1220.549
1994.633	1314.242
1994.979	1409.768
1995.325	1382.054
1995.672	1363.524
1996.018	1380.922
1996.364	1369.413
1996.710	1327.118
1997.056	1325.895
1997.403	1338.391
1997.749	1215.300
1998.095	1052.695
1998.441	1015.738
1998.787	1079.651
1999.134	1113.912
1999.480	1073.416
1999.826	1036.495
2000.172	981.668
2000.518	887.426
2000.865	766.365
2001.211	701.437
2001.557	671.155
2001.903	611.819
2002.249	504.814
2002.596	432.772
2002.942	445.952
2003.288	510.847
2003.634	568.154
2003.980	560.504
2004.327	547.162
2004.673	521.237
2005.019	493.035
2005.365	464.189
2005.711	437.267
2006.058	512.056
2006.404	625.897
2006.750	719.428
2007.096	815.861
2007.442	856.759
2007.789	951.332
2008.135	1040.571
2008.481	1193.858
2008.827	1354.639
2009.173	1373.933
2009.520	1260.475
2009.866	1075.922
2010.212	948.647
2010.558	893.671
2010.904	859.581
2011.251	855.198
2011.597	836.634
2011.943	832.882
2012.289	821.303
2012.635	825.138
2012.982	808.589
2013.328	786.603
2013.674	781.806
2014.020	802.407
2014.366	863.702
2014.713	870.601
2015.059	896.400
2015.405	877.074
2015.751	914.240
2016.097	883.674
2016.444	826.619
2016.790	760.238
2017.136	823.454
2017.482	942.881
2017.828	1013.273
2018.175	1054.808
2018.521	1045.516
2018.867	1134.756
2019.213	1151.797
2019.559	1204.312
2019.906	1225.830
2020.252	1227.198
2020.598	1264.533
2020.944	1252.619
2021.290	1370.852
2021.637	1450.518
2021.983	1542.070
2022.329	1614.125
2022.675	1590.160
2023.021	1602.246
2023.368	1553.488
2023.714	1619.112
2024.060	1714.049
2024.406	1743.493
2024.752	1798.371
2025.099	1814.668
2025.445	1873.714
2025.791	1944.245
2026.137	1966.867
2026.483	1998.453
2026.830	2012.187
2027.176	2008.916
2027.522	1952.903
2027.868	1839.771
2028.214	1748.784
2028.561	1762.419
2028.907	1859.740
2029.253	2000.324
2029.599	2104.104
2029.945	2109.442
2030.292	2081.857
2030.638	2054.274
2030.984	2081.978
2031.330	2132.640
2031.676	2156.358
2032.023	2159.582
2032.369	2151.682
2032.715	2076.881
2033.061	1996.392
2033.407	1987.027
2033.754	2061.755
2034.100	2144.902
2034.446	2159.321
2034.792	2163.915
2035.138	2168.574
2035.485	2169.754
2035.831	2169.098
2036.177	2168.914
2036.523	2168.883
2036.869	2165.589
2037.216	2161.040
2037.562	2151.729
2037.908	2114.657
2038.254	2078.462
2038.600	2074.161
2038.947	2100.627
2039.293	2101.454
2039.639	2007.128
2039.985	1891.138
2040.331	1858.847
2040.678	1934.533
2041.024	2024.957
2041.370	2057.067
2041.716	2057.991
2042.062	2062.206
2042.409	2062.059
2042.755	2039.012
2043.101	2017.911
2043.447	1992.182
2043.793	1960.655
2044.140	1950.158
2044.486	1972.093
2044.832	2021.729
2045.178	2062.854
2045.524	2083.871
2045.871	2090.125
2046.217	2072.943
2046.563	2049.390
2046.909	2014.693
2047.255	1973.544
2047.602	1927.420
2047.948	1889.656
2048.294	1839.776
2048.640	1798.674
2048.986	1768.547
2049.333	1730.101
2049.679	1679.959
2050.025	1609.049
2050.371	1555.396
2050.717	1550.927
2051.064	1541.666
2051.410	1517.310
2051.756	1493.487
2052.102	1447.542
2052.448	1449.414
2052.795	1424.713
2053.141	1396.573
2053.487	1381.734
2053.833	1318.173
2054.179	1318.470
2054.526	1314.346
2054.872	1333.576
2055.218	1377.941
2055.564	1367.973
2055.910	1371.411
2056.257	1296.070
2056.603	1291.174
2056.949	1314.405
2057.295	1372.932
2057.641	1437.069
2057.988	1474.983
2058.334	1544.673
2058.680	1577.055
2059.026	1655.834
2059.372	1741.991
2059.719	1838.380
2060.065	1896.045
2060.411	1852.741
2060.757	1786.393
2061.103	1694.776
2061.450	1686.285
2061.796	1660.895
2062.142	1613.041
2062.488	1529.934
2062.834	1497.836
2063.181	1508.298
2063.527	1539.396
2063.873	1543.962
2064.219	1536.724
2064.565	1531.009
2064.912	1529.767
2065.258	1539.070
2065.604	1500.937
2065.950	1476.850
2066.296	1477.473
2066.643	1543.720
2066.989	1580.590
2067.335	1616.385
2067.681	1611.935
2068.027	1643.640
2068.374	1623.999
2068.720	1652.165
2069.066	1640.795
2069.412	1653.245
2069.758	1648.178
2070.105	1653.027
2070.451	1673.994
2070.797	1682.075
2071.143	1742.540
2071.489	1755.210
2071.836	1812.423
2072.182	1821.079
2072.528	1863.058
2072.874	1854.365
2073.220	1840.405
2073.567	1866.946
2073.913	1878.432
2074.259	1921.296
2074.605	1889.990
2074.951	1892.139
2075.298	1898.849
2075.644	1927.761
2075.990	1970.413
2076.336	1966.837
2076.682	1986.273
2077.029	1946.806
2077.375	1884.391
2077.721	1849.313
2078.067	1888.918
2078.413	1999.232
2078.760	2072.442
2079.106	2114.287
2079.452	2130.490
2079.798	2135.899
2080.144	2140.180
2080.491	2133.053
2080.837	2127.459
2081.183	2106.797
2081.529	2083.079
2081.875	2069.261
2082.222	2056.049
2082.568	2045.098
2082.914	2036.111
2083.260	2038.578
2083.606	2046.736
2083.953	2044.541
2084.299	1974.137
2084.645	1904.322
2084.991	1899.523
2085.337	1966.931
2085.684	2027.778
2086.030	2030.436
2086.376	2035.677
2086.722	2051.472
2087.068	2068.460
2087.415	2068.894
2087.761	2072.897
2088.107	2064.796
2088.453	2064.678
2088.799	2061.244
2089.146	2065.787
2089.492	2039.588
2089.838	2005.666
2090.184	2005.531
2090.530	2034.839
2090.877	2075.033
2091.223	2078.981
2091.569	2084.486
2091.915	2078.968
2092.261	2070.666
2092.608	2069.498
2092.954	2071.832
2093.300	2024.232
2093.646	1953.228
2093.992	1943.606
2094.339	2006.711
2094.685	2082.792
2095.031	2102.097
2095.377	2103.077
2095.723	2106.384
2096.070	2107.620
2096.416	2106.819
2096.762	2100.334
2097.108	2094.394
2097.454	2095.427
2097.801	2088.000
2098.147	2002.866
2098.493	1886.425
2098.839	1859.221
2099.185	1948.874
2099.532	2062.183
2099.878	2067.146
2100.224	2037.035
2100.570	2041.244
2100.916	2053.674
2101.263	1968.399
2101.609	1869.933
2101.955	1887.631
2102.301	2005.606
2102.647	2107.491
2102.994	2114.875
2103.340	2113.933
2103.686	2111.380
2104.032	2109.522
2104.378	2097.901
2104.725	2081.880
2105.071	2071.475
2105.417	2076.533
2105.763	2089.412
2106.109	2089.652
2106.456	2084.480
2106.802	2081.824
2107.148	2085.650
2107.494	2089.649
2107.840	2087.486
2108.187	2085.525
2108.533	2083.017
2108.879	2080.476
2109.225	2058.549
2109.571	2027.512
2109.918	2016.705
2110.264	2037.143
2110.610	2066.689
2110.956	2072.219
2111.302	2017.208
2111.649	1961.259
2111.995	1944.559
2112.341	1980.970
2112.687	2036.567
2113.033	2060.676
2113.380	2081.770
2113.726	2085.388
2114.072	2085.341
2114.418	2080.885
2114.764	2073.398
2115.111	2063.714
2115.457	2055.270
2115.803	2044.061
2116.149	2039.091
2116.495	2044.350
2116.842	2053.930
2117.188	2058.682
2117.534	2052.137
2117.880	1998.003
2118.226	1896.099
2118.573	1844.586
2118.919	1889.482
2119.265	1960.503
2119.611	1968.225
2119.957	1938.544
2120.304	1951.182
2120.650	1991.016
2120.996	2015.897
2121.342	2024.814
2121.688	2027.523
2122.035	2035.016
2122.381	2039.624
2122.727	2039.701
2123.073	2038.596
2123.419	2035.904
2123.766	2003.368
2124.112	1928.141
2124.458	1873.914
2124.804	1894.402
2125.150	1970.402
2125.497	2028.389
2125.843	2041.676
2126.189	2041.971
2126.535	2038.701
2126.881	2024.537
2127.228	1922.972
2127.574	1817.433
2127.920	1809.046
2128.266	1903.114
2128.612	2003.586
2128.959	2016.794
2129.305	2016.093
2129.651	2015.050
2129.997	2011.765
2130.343	2006.410
2130.690	2001.677
2131.036	1999.471
2131.382	1998.036
2131.728	1995.333
2132.074	1991.888
2132.421	1988.995
2132.767	1987.750
2133.113	1986.871
2133.459	1985.429
2133.805	1983.693
2134.152	1983.049
2134.498	1984.430
2134.844	1985.884
2135.190	1969.345
2135.536	1933.322
2135.883	1913.012
2136.229	1928.606
2136.575	1964.174
2136.921	1983.394
2137.267	1983.243
2137.614	1981.774
2137.960	1979.447
2138.306	1977.317
2138.652	1975.466
2138.998	1974.481
2139.345	1973.704
2139.691	1973.461
2140.037	1975.500
2140.383	1977.455
2140.729	1977.721
2141.076	1976.278
2141.422	1974.578
2141.768	1973.271
2142.114	1971.316
2142.460	1967.420
2142.807	1963.140
2143.153	1960.258
2143.499	1959.280
2143.845	1956.696
2144.191	1949.353
2144.538	1942.837
2144.884	1940.330
2145.230	1938.879
2145.576	1934.852
2145.922	1929.372
2146.269	1926.534
2146.615	1924.427
2146.961	1920.107
2147.307	1913.917
2147.653	1900.978
2148.000	1889.915
2148.346	1885.922
2148.692	1887.960
2149.038	1888.018
2149.384	1867.843
2149.731	1849.757
2150.077	1845.052
2150.423	1853.809
2150.769	1817.651
2151.115	1733.417
2151.462	1682.632
2151.808	1701.325
2152.154	1758.204
2152.500	1766.995
2152.846	1751.648
2153.193	1753.120
2153.539	1770.450
2153.885	1782.232
2154.231	1780.047
2154.577	1791.914
2154.924	1812.201
2155.270	1826.958
2155.616	1833.643
2155.962	1837.404
2156.308	1842.661
2156.655	1845.990
2157.001	1847.394
2157.347	1845.233
2157.693	1835.628
2158.039	1828.021
2158.386	1805.749
2158.732	1759.868
2159.078	1730.245
2159.424	1723.731
2159.770	1742.613
2160.117	1762.581
2160.463	1766.956
2160.809	1766.723
2161.155	1761.365
2161.501	1775.395
2161.848	1790.713
2162.194	1783.546
2162.540	1766.182
2162.886	1660.305
2163.232	1528.506
2163.579	1499.691
2163.925	1608.252
2164.271	1754.315
2164.617	1797.943
2164.963	1798.221
2165.310	1796.855
2165.656	1789.435
2166.002	1775.815
2166.348	1757.979
2166.694	1743.989
2167.041	1743.717
2167.387	1751.978
2167.733	1759.877
2168.079	1698.821
2168.425	1611.225
2168.772	1586.910
2169.118	1646.453
2169.464	1729.984
2169.810	1751.486
2170.156	1750.024
2170.503	1750.553
2170.849	1752.818
2171.195	1754.657
2171.541	1753.439
2171.887	1744.720
2172.234	1721.310
2172.580	1696.160
2172.926	1692.711
2173.272	1701.948
2173.618	1708.066
2173.965	1666.740
2174.311	1623.441
2174.657	1625.675
2175.003	1664.893
2175.349	1708.645
2175.696	1673.634
2176.042	1624.171
2176.388	1618.971
2176.734	1667.462
2177.080	1727.326
2177.427	1741.273
2177.773	1725.533
2178.119	1697.014
2178.465	1673.500
2178.811	1629.940
2179.158	1599.883
2179.504	1609.867
2179.850	1657.866
2180.196	1703.923
2180.542	1705.857
2180.889	1702.764
2181.235	1699.774
2181.581	1695.812
2181.927	1690.124
2182.273	1669.485
2182.620	1609.579
2182.966	1496.630
2183.312	1432.493
2183.658	1469.143
2184.004	1547.846
2184.351	1511.905
2184.697	1409.473
2185.043	1405.877
2185.389	1512.339
2185.735	1632.620
2186.082	1668.019
2186.428	1658.679
2186.774	1626.588
2187.120	1582.569
2187.466	1545.769
2187.813	1520.990
2188.159	1527.474
2188.505	1569.475
2188.851	1613.362
2189.197	1632.137
2189.544	1624.432
2189.890	1592.882
2190.236	1552.691
2190.582	1543.321
2190.928	1576.236
2191.275	1625.077
2191.621	1643.635
2191.967	1644.596
2192.313	1643.774
2192.659	1642.589
2193.006	1642.287
2193.352	1642.228
2193.698	1639.112
2194.044	1595.015
2194.390	1504.755
2194.737	1442.119
2195.083	1464.626
2195.429	1544.072
2195.775	1590.833
2196.121	1573.642
2196.468	1547.457
2196.814	1542.281
2197.160	1555.635
2197.506	1542.013
2197.852	1436.615
2198.199	1344.474
2198.545	1340.417
2198.891	1394.733
2199.237	1422.204
2199.583	1373.327
2199.930	1332.731
2200.276	1332.895
2200.622	1374.824
2200.968	1437.571
2201.314	1472.638
2201.661	1472.510
2202.007	1464.332
2202.353	1463.887
2202.699	1475.467
2203.045	1494.049
2203.392	1493.027
2203.738	1474.622
2204.084	1451.655
2204.430	1397.536
2204.776	1364.734
2205.123	1385.115
2205.469	1455.849
2205.815	1519.538
2206.161	1511.040
2206.507	1488.174
2206.854	1469.945
2207.200	1465.447
2207.546	1480.238
2207.892	1498.976
2208.238	1519.576
2208.585	1528.223
2208.931	1525.577
2209.277	1524.159
2209.623	1520.371
2209.969	1507.586
2210.316	1497.345
2210.662	1492.677
2211.008	1496.812
2211.354	1504.080
2211.700	1509.965
2212.047	1515.978
2212.393	1515.019
2212.739	1513.834
2213.085	1513.254
2213.431	1510.318
2213.778	1505.521
2214.124	1492.935
2214.470	1464.331
2214.816	1445.401
2215.162	1445.247
2215.509	1423.349
2215.855	1385.554
2216.201	1363.124
2216.547	1395.397
2216.893	1448.390
2217.240	1473.770
2217.586	1482.142
2217.932	1474.832
2218.278	1469.173
2218.624	1469.312
2218.971	1472.235
2219.317	1468.067
2219.663	1460.694
2220.009	1455.654
2220.355	1455.247
2220.702	1450.706
2221.048	1426.801
2221.394	1402.232
2221.740	1398.199
2222.086	1414.979
2222.433	1431.455
2222.779	1435.068
2223.125	1436.687
2223.471	1439.191
2223.817	1439.300
2224.164	1436.531
2224.510	1426.381
2224.856	1406.661
2225.202	1390.108
2225.548	1389.455
2225.895	1397.133
2226.241	1395.243
2226.587	1380.884
2226.933	1372.434
2227.279	1380.879
2227.626	1397.731
2227.972	1410.147
2228.318	1414.220
2228.664	1414.587
2229.010	1413.712
2229.357	1413.532
2229.703	1413.917
2230.049	1412.507
2230.395	1406.873
2230.741	1399.667
2231.088	1378.262
2231.434	1358.661
2231.780	1342.495
2232.126	1337.249
2232.472	1344.788
2232.819	1355.547
2233.165	1362.010
2233.511	1356.473
2233.857	1355.726
2234.203	1364.014
2234.550	1371.045
2234.896	1367.808
2235.242	1362.402
2235.588	1346.656
2235.934	1325.998
2236.281	1315.753
2236.627	1324.818
2236.973	1333.945
2237.319	1328.207
2237.665	1317.678
2238.012	1320.595
2238.358	1337.078
2238.704	1350.286
2239.050	1352.680
2239.396	1347.160
2239.743	1334.156
2240.089	1321.180
2240.435	1316.540
2240.781	1315.390
2241.127	1310.343
2241.474	1307.438
2241.820	1315.395
2242.166	1326.879
2242.512	1328.695
2242.858	1323.882
2243.205	1317.566
2243.551	1298.228
2243.897	1277.284
2244.243	1278.064
2244.589	1301.325
2244.936	1324.279
2245.282	1326.085
2245.628	1307.104
2245.974	1284.936
2246.320	1266.397
2246.667	1242.147
2247.013	1226.345
2247.359	1236.074
2247.705	1272.065
2248.051	1305.257
2248.398	1310.960
2248.744	1305.599
2249.090	1295.876
2249.436	1287.136
2249.782	1279.732
2250.129	1271.008
2250.475	1264.149
2250.821	1264.248
2251.167	1273.268
2251.513	1280.624
2251.860	1274.144
2252.206	1265.118
2252.552	1259.262
2252.898	1254.653
2253.244	1245.054
2253.591	1219.068
2253.937	1202.926
2254.283	1208.856
2254.629	1231.433
2254.975	1241.782
2255.322	1225.358
2255.668	1209.450
2256.014	1202.817
2256.360	1191.260
2256.706	1174.467
2257.053	1174.536
2257.399	1193.249
2257.745	1210.445
2258.091	1211.186
2258.437	1212.738
2258.784	1222.919
2259.130	1231.260
2259.476	1226.732
2259.822	1211.989
2260.168	1201.072
2260.515	1177.892
2260.861	1154.361
2261.207	1126.642
2261.553	1110.787
2261.899	1106.321
2262.246	1119.115
2262.592	1159.580
2262.938	1185.016
2263.284	1177.890
2263.630	1155.042
2263.977	1146.455
2264.323	1134.147
2264.669	1120.172
2265.015	1124.944
2265.361	1157.550
2265.708	1186.338
2266.054	1190.843
2266.400	1186.498
2266.746	1177.974
2267.092	1164.362
2267.439	1147.533
2267.785	1121.421
2268.131	1074.374
2268.477	1036.366
2268.823	1044.298
2269.170	1092.825
2269.516	1136.579
2269.862	1125.243
2270.208	1099.094
2270.554	1098.429
2270.901	1119.737
2271.247	1135.874
2271.593	1123.678
2271.939	1091.335
2272.285	1065.991
2272.632	1070.018
2272.978	1094.733
2273.324	1116.576
2273.670	1119.680
2274.016	1121.880
2274.363	1113.934
2274.709	1088.455
2275.055	1034.638
2275.401	972.249
2275.747	953.074
2276.094	981.248
2276.440	1028.419
2276.786	1041.509
2277.132	1045.707
2277.478	1065.276
2277.825	1082.075
2278.171	1092.260
2278.517	1093.206
2278.863	1100.636
2279.209	1106.589
2279.556	1106.776
2279.902	1095.594
2280.248	1051.177
2280.594	1009.560
2280.940	1005.389
2281.287	1034.413
2281.633	1064.293
2281.979	1061.421
2282.325	1016.758
2282.671	954.698
2283.018	938.142
2283.364	960.334
2283.710	982.304
2284.056	989.951
2284.402	1012.221
2284.749	1028.295
2285.095	1011.881
2285.441	1004.237
2285.787	1028.617
2286.133	1052.953
2286.480	1052.214
2286.826	1047.425
2287.172	1044.241
2287.518	1042.858
2287.864	1038.805
2288.211	1040.850
2288.557	1045.375
2288.903	1020.411
2289.249	969.518
2289.595	913.686
2289.942	904.310
2290.288	945.356
2290.634	989.781
2290.980	1012.881
2291.326	1014.743
2291.673	1007.926
2292.019	982.823
2292.365	962.322
2292.711	969.406
2293.057	991.085
2293.404	986.948
2293.750	968.310
2294.096	964.810
2294.442	956.634
2294.788	942.168
2295.135	919.055
2295.481	908.195
2295.827	910.438
2296.173	921.016
2296.519	949.189
2296.866	972.936
2297.212	985.452
2297.558	976.240
2297.904	931.799
2298.250	880.861
2298.597	859.396
2298.943	868.154
2299.289	889.421
2299.635	884.530
2299.981	866.603
2300.328	848.292
2300.674	849.879
2301.020	878.946
2301.366	903.970
2301.712	911.135
2302.059	894.287
2302.405	879.639
2302.751	878.213
2303.097	868.304
2303.443	844.263
2303.790	816.519
2304.136	804.341
2304.482	814.795
2304.828	830.311
2305.174	846.056
2305.521	851.858
2305.867	849.053
2306.213	844.270
2306.559	843.595
2306.905	830.151
2307.252	807.577
2307.598	797.193
2307.944	811.163
2308.290	836.029
2308.636	840.007
2308.983	827.551
2309.329	813.554
2309.675	805.553
2310.021	807.020
2310.367	814.273
2310.714	817.915
2311.060	812.278
2311.406	796.643
2311.752	775.853
2312.098	762.594
2312.445	761.253
2312.791	763.672
2313.137	760.379
2313.483	748.396
2313.829	735.904
2314.176	723.093
2314.522	708.358
2314.868	693.954
2315.214	676.733
2315.560	645.769
2315.907	597.913
2316.253	532.801
2316.599	461.727
2316.945	418.750
2317.291	410.410
2317.638	423.841
2317.984	431.043
2318.330	435.301
2318.676	451.042
2319.022	459.836
2319.369	455.741
2319.715	443.420
2320.061	433.858
2320.407	423.031
2320.753	410.302
2321.100	396.169
2321.446	367.378
2321.792	337.618
2322.138	313.187
2322.484	301.852
2322.831	293.465
2323.177	284.363
2323.523	285.136
2323.869	285.413
2324.215	284.804
2324.562	278.058
2324.908	264.047
2325.254	245.758
2325.600	233.130
2325.946	225.367
2326.293	218.795
2326.639	210.652
2326.985	203.722
2327.331	196.459
2327.677	186.239
2328.024	169.718
2328.370	154.608
2328.716	146.482
2329.062	145.210
2329.408	145.657
2329.755	141.190
2330.101	135.694
2330.447	127.377
2330.793	118.251
2331.139	109.226
2331.486	101.916
2331.832	97.090
2332.178	94.260
2332.524	92.362
2332.870	89.399
2333.217	85.716
2333.563	80.798
2333.909	75.581
2334.255	70.957
2334.601	66.009
2334.948	61.715
2335.294	58.907
2335.640	56.955
2335.986	54.977
2336.332	52.730
2336.679	51.524
2337.025	50.161
2337.371	47.825
2337.717	44.666
2338.063	40.801
2338.410	36.479
2338.756	33.753
2339.102	32.910
2339.448	31.751
2339.794	28.908
2340.141	26.183
2340.487	25.516
2340.833	25.537
2341.179	25.266
2341.525	24.044
2341.872	23.484
2342.218	23.379
2342.564	23.566
2342.910	23.488
2343.256	22.208
2343.603	21.246
2343.949	20.762
2344.295	19.879
2344.641	18.213
2344.987	16.664
2345.334	16.107
2345.680	16.234
2346.026	15.942
2346.372	15.043
2346.718	14.087
2347.065	13.061
2347.411	12.169
2347.757	11.357
2348.103	11.008
2348.449	11.241
2348.796	11.311
2349.142	10.811
2349.488	9.951
2349.834	9.228
2350.180	8.741
2350.527	8.235
2350.873	7.823
2351.219	7.367
2351.565	6.809
2351.911	5.909
2352.258	5.282
2352.604	5.426
2352.950	5.768
2353.296	6.077
2353.642	6.036
2353.989	6.066
2354.335	6.044
2354.681	5.848
2355.027	5.684
2355.373	5.329
2355.720	4.820
2356.066	4.542
2356.412	4.588
2356.758	4.700
2357.104	4.634
2357.451	4.549
2357.797	4.350
2358.143	3.759
2358.489	3.179
2358.835	3.137
2359.182	3.560
2359.528	3.915
2359.874	3.900
2360.220	3.727
2360.566	3.580
2360.913	3.399
2361.259	3.136
2361.605	2.938
2361.951	2.888
2362.297	2.930
2362.644	2.895
2362.990	2.751
2363.336	2.472
2363.682	2.147
2364.028	1.959
2364.375	1.996
2364.721	2.152
2365.067	2.215
2365.413	2.189
2365.759	2.070
2366.106	1.939
2366.452	1.818
2366.798	1.635
2367.144	1.415
2367.490	1.275
2367.837	1.288
2368.183	1.312
2368.529	1.212
2368.875	1.123
2369.221	1.129
2369.568	1.141
2369.914	1.008
2370.260	0.764
2370.606	0.588
2370.952	0.502
2371.299	0.500
2371.645	0.568
2371.991	0.686
2372.337	0.764
2372.683	0.766
2373.030	0.761
2373.376	0.770
2373.722	0.776
2374.068	0.761
2374.414	0.738
2374.761	0.701
2375.107	0.663
2375.453	0.635
2375.799	0.576
2376.145	0.467
2376.492	0.373
2376.838	0.345
2377.184	0.369
2377.530	0.355
2377.876	0.283
2378.223	0.232
2378.569	0.230
2378.915	0.250
2379.261	0.236
2379.607	0.197
2379.954	0.162
2380.300	0.134
2380.646	0.109
