# WAVELENGTH COUNTS
1349.300	0.000
1349.561	0.000
1349.822	0.000
1350.083	0.000
1350.344	0.000
1350.605	0.000
1350.865	0.000
1351.126	0.000
1351.387	0.000
1351.648	0.000
1351.909	0.000
1352.170	0.000
1352.431	0.000
1352.692	0.000
1352.953	0.000
1353.214	0.000
1353.474	0.000
1353.735	0.000
1353.996	0.000
1354.257	0.000
1354.518	0.000
1354.779	0.000
1355.040	0.000
1355.301	0.000
1355.562	0.000
1355.823	0.000
1356.083	0.000
1356.344	0.000
1356.605	0.000
1356.866	0.000
1357.127	0.000
1357.388	0.000
1357.649	0.000
1357.910	0.000
1358.171	0.000
1358.432	0.000
1358.692	0.000
1358.953	0.000
1359.214	0.000
1359.475	0.000
1359.736	0.000
1359.997	0.000
1360.258	0.000
1360.519	0.000
1360.780	0.000
1361.041	0.000
1361.301	0.000
1361.562	0.000
1361.823	0.000
1362.084	0.000
1362.345	0.000
1362.606	0.000
1362.867	0.000
1363.128	0.000
1363.389	0.000
1363.650	0.000
1363.910	0.000
1364.171	0.000
1364.432	0.000
1364.693	0.000
1364.954	0.000
1365.215	0.000
1365.476	0.000
1365.737	0.000
1365.998	0.000
1366.259	0.000
1366.519	0.000
1366.780	0.000
1367.041	0.000
1367.302	0.000
1367.563	0.000
1367.824	0.000
1368.085	0.000
1368.346	0.000
1368.607	0.000
1368.868	0.000
1369.128	0.000
1369.389	0.000
1369.650	0.000
1369.911	0.000
1370.172	0.000
1370.433	0.000
1370.694	0.000
1370.955	0.000
1371.216	0.000
1371.477	0.000
1371.737	0.000
1371.998	0.000
1372.259	0.000
1372.520	0.000
1372.781	0.000
1373.042	0.000
1373.303	0.000
1373.564	0.000
1373.825	0.000
1374.086	0.000
1374.346	0.000
1374.607	0.000
1374.868	0.000
1375.129	0.000
1375.390	0.000
1375.651	0.000
1375.912	0.000
1376.173	0.000
1376.434	0.000
1376.695	0.000
1376.955	0.000
1377.216	0.000
1377.477	0.000
1377.738	0.000
1377.999	0.000
1378.260	0.000
1378.521	0.000
1378.782	0.000
1379.043	0.000
1379.304	0.000
1379.564	0.000
1379.825	0.000
1380.086	0.000
1380.347	0.000
1380.608	0.000
1380.869	0.000
1381.130	0.000
1381.391	0.000
1381.652	0.000
1381.913	0.000
1382.173	0.000
1382.434	0.000
1382.695	0.000
1382.956	0.000
1383.217	0.000
1383.478	0.000
1383.739	0.000
1384.000	0.000
1384.261	0.000
1384.522	0.000
1384.782	0.000
1385.043	0.000
1385.304	0.000
1385.565	0.000
1385.826	0.000
1386.087	0.000
1386.348	0.000
1386.609	0.000
1386.870	0.000
1387.131	0.000
1387.391	0.000
1387.652	0.000
1387.913	0.000
1388.174	0.000
1388.435	0.000
1388.696	0.000
1388.957	0.000
1389.218	0.000
1389.479	0.000
1389.740	0.000
1390.000	0.000
1390.261	0.000
1390.522	0.000
1390.783	0.000
1391.044	0.000
1391.305	0.000
1391.566	0.000
1391.827	0.000
1392.088	0.000
1392.349	0.000
1392.609	0.000
1392.870	0.000
1393.131	0.000
1393.392	0.000
1393.653	0.000
1393.914	0.000
1394.175	0.000
1394.436	0.000
1394.697	0.000
1394.958	0.000
1395.218	0.000
1395.479	0.000
1395.740	0.000
1396.001	0.000
1396.262	0.000
1396.523	0.000
1396.784	0.000
1397.045	0.000
1397.306	0.000
1397.567	0.000
1397.827	0.000
1398.088	0.000
1398.349	0.000
1398.610	0.000
1398.871	0.000
1399.132	0.000
1399.393	0.000
1399.654	0.000
1399.915	0.000
1400.176	0.000
1400.436	0.000
1400.697	0.000
1400.958	0.000
1401.219	0.000
1401.480	0.000
1401.741	0.000
1402.002	0.000
1402.263	0.000
1402.524	0.000
1402.785	0.000
1403.045	0.000
1403.306	0.000
1403.567	0.000
1403.828	0.000
1404.089	0.000
1404.350	0.000
1404.611	0.000
1404.872	0.000
1405.133	0.000
1405.394	0.000
1405.654	0.000
1405.915	0.000
1406.176	0.000
1406.437	0.000
1406.698	0.000
1406.959	0.000
1407.220	0.000
1407.481	0.000
1407.742	0.000
1408.003	0.000
1408.263	0.000
1408.524	0.000
1408.785	0.000
1409.046	0.000
1409.307	0.000
1409.568	0.000
1409.829	0.000
1410.090	0.000
1410.351	0.000
1410.612	0.000
1410.872	0.000
1411.133	0.000
1411.394	0.000
1411.655	0.000
1411.916	0.000
1412.177	0.000
1412.438	0.000
1412.699	0.000
1412.960	0.000
1413.221	0.000
1413.481	0.000
1413.742	0.000
1414.003	0.000
1414.264	0.000
1414.525	0.000
1414.786	0.000
1415.047	0.000
1415.308	0.000
1415.569	0.000
1415.830	0.000
1416.090	0.000
1416.351	0.000
1416.612	0.000
1416.873	0.000
1417.134	0.000
1417.395	0.000
1417.656	0.000
1417.917	0.000
1418.178	0.000
1418.439	0.000
1418.699	0.000
1418.960	0.000
1419.221	0.000
1419.482	0.000
1419.743	0.000
1420.004	0.000
1420.265	0.000
1420.526	0.000
1420.787	0.000
1421.048	0.000
1421.308	0.000
1421.569	0.000
1421.830	0.000
1422.091	0.000
1422.352	0.000
1422.613	0.000
1422.874	0.000
1423.135	0.000
1423.396	0.000
1423.657	0.000
1423.917	0.000
1424.178	0.000
1424.439	0.000
1424.700	0.000
1424.961	0.000
1425.222	0.000
1425.483	0.000
1425.744	0.000
1426.005	0.000
1426.266	0.000
1426.526	0.000
1426.787	0.000
1427.048	0.000
1427.309	0.000
1427.570	0.000
1427.831	0.000
1428.092	0.000
1428.353	0.000
1428.614	0.000
1428.875	0.000
1429.135	0.000
1429.396	0.000
1429.657	0.000
1429.918	0.000
1430.179	0.000
1430.440	0.000
1430.701	0.000
1430.962	0.000
1431.223	0.000
1431.484	0.000
1431.744	0.000
1432.005	0.000
1432.266	0.000
1432.527	0.000
1432.788	0.000
1433.049	0.000
1433.310	0.000
1433.571	0.000
1433.832	0.000
1434.093	0.000
1434.353	0.000
1434.614	0.000
1434.875	0.000
1435.136	0.000
1435.397	0.000
1435.658	0.000
1435.919	0.000
1436.180	0.000
1436.441	0.000
1436.702	0.000
1436.962	0.000
1437.223	0.000
1437.484	0.000
1437.745	0.000
1438.006	0.000
1438.267	0.000
1438.528	0.000
1438.789	0.000
1439.050	0.000
1439.311	0.000
1439.571	0.000
1439.832	0.000
1440.093	0.000
1440.354	0.000
1440.615	0.000
1440.876	0.000
1441.137	0.000
1441.398	0.000
1441.659	0.000
1441.920	0.000
1442.180	0.000
1442.441	0.000
1442.702	0.000
1442.963	0.000
1443.224	0.000
1443.485	0.000
1443.746	0.000
1444.007	0.000
1444.268	0.000
1444.529	0.000
1444.789	0.000
1445.050	0.000
1445.311	0.000
1445.572	0.000
1445.833	0.007
1446.094	0.087
1446.355	0.277
1446.616	0.436
1446.877	0.473
1447.138	0.512
1447.398	0.793
1447.659	1.144
1447.920	1.247
1448.181	1.147
1448.442	1.028
1448.703	1.081
1448.964	1.188
1449.225	1.207
1449.486	1.054
1449.747	0.732
1450.007	0.423
1450.268	0.201
1450.529	0.079
1450.790	0.052
1451.051	0.252
1451.312	0.634
1451.573	0.912
1451.834	0.850
1452.095	0.698
1452.356	0.776
1452.616	0.879
1452.877	0.900
1453.138	0.939
1453.399	1.242
1453.660	1.671
1453.921	1.975
1454.182	2.232
1454.443	2.379
1454.704	2.224
1454.965	1.620
1455.225	1.042
1455.486	1.118
1455.747	1.740
1456.008	2.353
1456.269	2.725
1456.530	2.828
1456.791	2.921
1457.052	3.171
1457.313	3.198
1457.574	3.194
1457.834	3.529
1458.095	4.299
1458.356	5.120
1458.617	5.513
1458.878	5.822
1459.139	6.180
1459.400	6.060
1459.661	5.442
1459.922	4.086
1460.183	2.985
1460.443	3.444
1460.704	4.770
1460.965	5.366
1461.226	4.875
1461.487	5.007
1461.748	6.668
1462.009	8.677
1462.270	9.434
1462.531	8.373
1462.792	5.763
1463.052	3.656
1463.313	4.532
1463.574	7.460
1463.835	10.720
1464.096	13.082
1464.357	14.669
1464.618	14.310
1464.879	10.478
1465.140	7.158
1465.401	7.411
1465.661	9.269
1465.922	9.457
1466.183	7.321
1466.444	6.017
1466.705	5.769
1466.966	6.902
1467.227	9.099
1467.488	10.210
1467.749	11.771
1468.010	14.232
1468.270	18.184
1468.531	21.299
1468.792	20.404
1469.053	16.375
1469.314	10.396
1469.575	8.552
1469.836	12.402
1470.097	15.043
1470.358	12.248
1470.619	6.029
1470.879	3.900
1471.140	9.365
1471.401	16.705
1471.662	21.779
1471.923	19.949
1472.184	13.829
1472.445	14.189
1472.706	20.788
1472.967	29.326
1473.228	30.758
1473.488	26.727
1473.749	29.336
1474.010	42.121
1474.271	58.331
1474.532	69.673
1474.793	76.282
1475.054	78.973
1475.315	70.216
1475.576	49.591
1475.837	39.085
1476.097	51.365
1476.358	67.027
1476.619	63.421
1476.880	53.138
1477.141	59.638
1477.402	68.130
1477.663	59.082
1477.924	52.970
1478.185	80.652
1478.446	124.139
1478.706	146.995
1478.967	135.839
1479.228	111.729
1479.489	108.930
1479.750	113.608
1480.011	103.196
1480.272	75.165
1480.533	83.689
1480.794	155.611
1481.055	229.933
1481.315	228.646
1481.576	169.862
1481.837	128.407
1482.098	166.545
1482.359	270.077
1482.620	354.222
1482.881	392.826
1483.142	401.342
1483.403	442.133
1483.663	495.292
1483.924	473.537
1484.185	386.797
1484.446	357.775
1484.707	448.438
1484.968	560.365
1485.229	603.688
1485.490	629.653
1485.751	662.802
1486.012	665.846
1486.273	571.596
1486.533	485.571
1486.794	473.664
1487.055	537.294
1487.316	679.973
1487.577	755.411
1487.838	764.263
1488.099	792.173
1488.360	951.289
1488.621	1157.977
1488.882	1281.426
1489.142	1266.560
1489.403	1166.890
1489.664	1152.133
1489.925	1316.225
1490.186	1587.959
1490.447	1744.676
1490.708	1760.704
1490.969	1589.669
1491.230	1335.144
1491.490	1193.488
1491.751	1244.172
1492.012	1411.466
1492.273	1495.132
1492.534	1494.433
1492.795	1487.440
1493.056	1548.834
1493.317	1727.770
1493.578	1824.192
1493.839	1754.576
1494.100	1676.635
1494.360	1690.628
1494.621	1672.284
1494.882	1543.159
1495.143	1480.536
1495.404	1479.826
1495.665	1569.924
1495.926	1629.402
1496.187	1580.410
1496.448	1567.646
1496.709	1670.008
1496.969	1926.506
1497.230	2044.074
1497.491	1938.619
1497.752	1755.633
1498.013	1664.405
1498.274	1721.823
1498.535	1843.506
1498.796	1880.474
1499.057	1828.117
1499.317	1768.808
1499.578	1773.827
1499.839	1876.705
1500.100	2004.358
1500.361	2071.871
1500.622	2041.928
1500.883	2051.170
1501.144	2100.663
1501.405	2035.669
1501.666	1904.634
1501.927	1886.714
1502.187	1951.067
1502.448	1953.751
1502.709	1844.332
1502.970	1778.736
1503.231	1751.100
1503.492	1621.428
1503.753	1491.759
1504.014	1477.212
1504.275	1525.425
1504.536	1578.565
1504.796	1639.772
1505.057	1812.488
1505.318	1963.728
1505.579	2017.043
1505.840	2041.860
1506.101	2083.399
1506.362	2138.245
1506.623	2148.853
1506.884	2077.600
1507.144	2004.776
1507.405	1998.891
1507.666	2045.870
1507.927	2014.900
1508.188	1835.172
1508.449	1620.895
1508.710	1501.865
1508.971	1592.999
1509.232	1815.940
1509.493	2026.675
1509.754	2084.927
1510.014	2034.085
1510.275	2005.653
1510.536	2003.967
1510.797	2005.945
1511.058	1997.231
1511.319	2013.671
1511.580	2060.870
1511.841	2073.841
1512.102	2032.546
1512.363	1969.684
1512.623	1919.762
1512.884	1920.132
1513.145	1938.715
1513.406	1924.103
1513.667	1878.323
1513.928	1853.364
1514.189	1910.177
1514.450	1961.953
1514.711	1984.885
1514.971	2009.347
1515.232	2053.931
1515.493	2102.219
1515.754	2075.517
1516.015	2015.178
1516.276	1956.772
1516.537	1929.228
1516.798	1948.925
1517.059	1958.716
1517.320	1941.619
1517.581	1949.839
1517.841	1988.518
1518.102	2034.052
1518.363	2040.486
1518.624	1996.186
1518.885	1955.869
1519.146	1944.777
1519.407	1986.773
1519.668	2051.214
1519.929	2072.915
1520.190	2061.181
1520.450	2061.874
1520.711	2096.273
1520.972	2137.627
1521.233	2143.151
1521.494	2102.618
1521.755	2072.871
1522.016	2084.162
1522.277	2125.325
1522.538	2156.361
1522.798	2157.338
1523.059	2142.170
1523.320	2125.774
1523.581	2126.558
1523.842	2140.507
1524.103	2123.864
1524.364	2083.517
1524.625	2061.282
1524.886	2071.665
1525.147	2091.384
1525.408	2073.993
1525.668	2056.178
1525.929	2053.825
1526.190	2060.749
1526.451	2052.390
1526.712	2041.593
1526.973	2035.884
1527.234	2042.216
1527.495	2058.019
1527.756	2081.105
1528.017	2107.678
1528.277	2096.136
1528.538	2078.444
1528.799	2075.173
1529.060	2088.954
1529.321	2094.811
1529.582	2084.330
1529.843	2074.426
1530.104	2077.113
1530.365	2088.567
1530.625	2100.759
1530.886	2090.151
1531.147	2062.657
1531.408	2056.353
1531.669	2081.712
1531.930	2113.518
1532.191	2120.898
1532.452	2119.900
1532.713	2117.507
1532.974	2115.115
1533.235	2113.484
1533.495	2108.634
1533.756	2101.364
1534.017	2096.897
1534.278	2098.260
1534.539	2095.228
1534.800	2080.947
1535.061	2071.624
1535.322	2075.003
1535.583	2085.839
1535.844	2094.546
1536.104	2100.874
1536.365	2107.354
1536.626	2105.530
1536.887	2097.279
1537.148	2095.624
1537.409	2106.587
1537.670	2123.125
1537.931	2133.486
1538.192	2135.061
1538.452	2132.737
1538.713	2124.932
1538.974	2115.570
1539.235	2112.853
1539.496	2119.734
1539.757	2129.608
1540.018	2132.372
1540.279	2129.946
1540.540	2127.180
1540.801	2127.011
1541.062	2130.426
1541.322	2131.694
1541.583	2127.382
1541.844	2121.445
1542.105	2121.852
1542.366	2130.839
1542.627	2140.603
1542.888	2147.129
1543.149	2152.946
1543.410	2158.689
1543.671	2159.974
1543.931	2151.374
1544.192	2143.997
1544.453	2148.810
1544.714	2163.039
1544.975	2175.453
1545.236	2175.950
1545.497	2172.270
1545.758	2168.796
1546.019	2168.565
1546.279	2170.794
1546.540	2173.933
1546.801	2178.029
1547.062	2180.750
1547.323	2182.029
1547.584	2181.229
1547.845	2182.271
1548.106	2186.028
1548.367	2191.205
1548.628	2196.241
1548.889	2200.269
1549.149	2204.566
1549.410	2208.486
1549.671	2211.831
1549.932	2214.195
1550.193	2214.752
1550.454	2212.945
1550.715	2208.123
1550.976	2203.624
1551.237	2201.153
1551.498	2197.743
1551.758	2190.875
1552.019	2185.420
1552.280	2185.971
1552.541	2189.461
1552.802	2190.003
1553.063	2187.146
1553.324	2184.145
1553.585	2180.430
1553.846	2175.193
1554.106	2171.467
1554.367	2171.893
1554.628	2176.030
1554.889	2180.797
1555.150	2183.373
1555.411	2185.205
1555.672	2186.186
1555.933	2184.793
1556.194	2182.018
1556.455	2179.717
1556.716	2178.999
1556.976	2179.052
1557.237	2178.305
1557.498	2177.502
1557.759	2175.563
1558.020	2173.535
1558.281	2171.597
1558.542	2170.369
1558.803	2170.125
1559.064	2169.232
1559.325	2166.652
1559.585	2162.047
1559.846	2158.439
1560.107	2157.704
1560.368	2157.851
1560.629	2157.193
1560.890	2155.732
1561.151	2154.228
1561.412	2152.887
1561.673	2149.485
1561.934	2142.816
1562.194	2137.562
1562.455	2137.076
1562.716	2140.402
1562.977	2142.513
1563.238	2140.314
1563.499	2136.602
1563.760	2132.377
1564.021	2127.230
1564.282	2123.979
1564.543	2122.954
1564.803	2122.904
1565.064	2121.476
1565.325	2117.645
1565.586	2113.799
1565.847	2110.771
1566.108	2109.411
1566.369	2107.858
1566.630	2103.320
1566.891	2096.295
1567.152	2090.025
1567.412	2083.365
1567.673	2075.780
1567.934	2068.864
1568.195	2063.238
1568.456	2056.279
1568.717	2045.468
1568.978	2032.530
1569.239	2018.875
1569.500	2004.059
1569.760	1987.737
1570.021	1970.139
1570.282	1951.871
1570.543	1934.625
1570.804	1919.707
1571.065	1907.286
1571.326	1894.039
1571.587	1879.451
1571.848	1868.971
1572.109	1866.820
1572.370	1872.148
1572.630	1875.182
1572.891	1872.313
1573.152	1873.009
1573.413	1883.578
1573.674	1897.443
1573.935	1908.330
1574.196	1920.853
1574.457	1937.845
1574.718	1955.431
1574.979	1968.476
1575.239	1972.011
1575.500	1965.110
1575.761	1943.215
1576.022	1916.801
1576.283	1900.600
1576.544	1883.459
1576.805	1871.673
1577.066	1861.481
1577.327	1849.533
1577.588	1846.599
1577.848	1835.498
1578.109	1834.454
1578.370	1835.228
1578.631	1832.887
1578.892	1842.080
1579.153	1840.262
1579.414	1848.676
1579.675	1850.529
1579.936	1855.610
1580.197	1862.921
1580.457	1865.012
1580.718	1872.769
1580.979	1873.968
1581.240	1880.515
1581.501	1882.871
1581.762	1888.938
1582.023	1892.146
1582.284	1896.348
1582.545	1897.352
1582.806	1896.999
1583.066	1899.042
1583.327	1904.879
1583.588	1914.592
1583.849	1920.722
1584.110	1923.838
1584.371	1923.013
1584.632	1922.261
1584.893	1921.756
1585.154	1923.711
1585.414	1924.598
1585.675	1923.878
1585.936	1918.621
1586.197	1915.097
1586.458	1915.400
1586.719	1916.700
1586.980	1916.775
1587.241	1917.434
1587.502	1921.832
1587.763	1926.325
1588.024	1927.848
1588.284	1928.526
1588.545	1930.223
1588.806	1932.372
1589.067	1934.797
1589.328	1936.900
1589.589	1938.614
1589.850	1938.009
1590.111	1937.744
1590.372	1939.929
1590.633	1943.882
1590.893	1947.299
1591.154	1946.604
1591.415	1944.009
1591.676	1943.505
1591.937	1946.250
1592.198	1950.625
1592.459	1955.410
1592.720	1961.706
1592.981	1969.566
1593.242	1976.126
1593.502	1981.473
1593.763	1984.517
1594.024	1983.077
1594.285	1980.133
1594.546	1979.254
1594.807	1980.826
1595.068	1981.688
1595.329	1981.113
1595.590	1980.115
1595.851	1976.184
1596.111	1971.945
1596.372	1969.864
1596.633	1969.849
1596.894	1966.821
1597.155	1961.769
1597.416	1960.410
1597.677	1961.993
1597.938	1961.757
1598.199	1956.078
1598.460	1948.104
1598.720	1940.126
1598.981	1932.602
1599.242	1924.549
1599.503	1914.588
1599.764	1902.167
1600.025	1888.463
1600.286	1873.945
1600.547	1857.915
1600.808	1840.988
1601.068	1826.019
1601.329	1816.378
1601.590	1809.825
1601.851	1799.838
1602.112	1785.581
1602.373	1778.295
1602.634	1784.175
1602.895	1793.871
1603.156	1794.221
1603.417	1792.794
1603.678	1801.088
1603.938	1810.983
1604.199	1819.768
1604.460	1831.940
1604.721	1850.187
1604.982	1871.087
1605.243	1888.477
1605.504	1902.565
1605.765	1905.172
1606.026	1888.798
1606.287	1870.762
1606.547	1850.968
1606.808	1834.343
1607.069	1824.314
1607.330	1810.081
1607.591	1805.393
1607.852	1793.867
1608.113	1788.323
1608.374	1789.134
1608.635	1785.820
1608.896	1793.487
1609.156	1787.433
1609.417	1790.951
1609.678	1789.661
1609.939	1791.611
1610.200	1794.334
1610.461	1795.359
1610.722	1804.931
1610.983	1809.012
1611.244	1816.212
1611.505	1817.659
1611.765	1823.861
1612.026	1827.796
1612.287	1831.898
1612.548	1833.436
1612.809	1833.937
1613.070	1832.509
1613.331	1832.458
1613.592	1836.928
1613.853	1841.747
1614.114	1844.318
1614.374	1841.948
1614.635	1840.957
1614.896	1840.444
1615.157	1840.986
1615.418	1840.155
1615.679	1838.849
1615.940	1837.082
1616.201	1833.699
1616.462	1829.572
1616.722	1827.063
1616.983	1828.555
1617.244	1830.421
1617.505	1830.833
1617.766	1828.880
1618.027	1827.300
1618.288	1823.195
1618.549	1816.981
1618.810	1812.538
1619.071	1811.989
1619.332	1813.323
1619.592	1811.841
1619.853	1808.440
1620.114	1805.062
1620.375	1802.452
1620.636	1800.050
1620.897	1796.767
1621.158	1792.257
1621.419	1787.722
1621.680	1784.597
1621.941	1782.304
1622.201	1779.505
1622.462	1775.958
1622.723	1772.472
1622.984	1769.187
1623.245	1765.565
1623.506	1761.456
1623.767	1757.878
1624.028	1755.684
1624.289	1753.287
1624.550	1749.863
1624.810	1745.626
1625.071	1742.296
1625.332	1740.180
1625.593	1737.795
1625.854	1736.132
1626.115	1735.596
1626.376	1736.273
1626.637	1736.386
1626.898	1734.394
1627.159	1732.680
1627.419	1732.712
1627.680	1732.856
1627.941	1732.724
1628.202	1732.860
1628.463	1735.491
1628.724	1739.794
1628.985	1742.789
1629.246	1745.145
1629.507	1747.243
1629.768	1749.412
1630.028	1746.266
1630.289	1737.027
1630.550	1729.243
1630.811	1727.501
1631.072	1728.786
1631.333	1727.362
1631.594	1723.042
1631.855	1716.817
1632.116	1707.451
1632.376	1697.085
1632.637	1688.089
1632.898	1684.783
1633.159	1686.755
1633.420	1689.385
1633.681	1689.742
1633.942	1686.700
1634.203	1684.471
1634.464	1681.631
1634.725	1678.159
1634.986	1666.796
1635.246	1655.237
1635.507	1653.455
1635.768	1661.200
1636.029	1670.553
1636.290	1670.067
1636.551	1668.569
1636.812	1668.179
1637.073	1665.335
1637.334	1647.341
1637.595	1628.917
1637.855	1628.933
1638.116	1645.366
1638.377	1659.949
1638.638	1658.599
1638.899	1652.999
1639.160	1641.065
1639.421	1631.822
1639.682	1629.676
1639.943	1613.894
1640.204	1597.330
1640.464	1596.927
1640.725	1617.684
1640.986	1637.592
1641.247	1636.802
1641.508	1634.098
1641.769	1632.660
1642.030	1632.601
1642.291	1628.796
1642.552	1601.102
1642.813	1576.633
1643.073	1581.144
1643.334	1611.205
1643.595	1637.753
1643.856	1642.006
1644.117	1645.421
1644.378	1647.435
1644.639	1647.633
1644.900	1640.782
1645.161	1601.450
1645.422	1567.265
1645.682	1570.943
1645.943	1609.302
1646.204	1644.832
1646.465	1649.402
1646.726	1652.521
1646.987	1653.731
1647.248	1653.227
1647.509	1650.450
1647.770	1628.918
1648.030	1599.375
1648.291	1590.915
1648.552	1609.955
1648.813	1635.149
1649.074	1641.208
1649.335	1639.010
1649.596	1640.716
1649.857	1643.111
1650.118	1642.540
1650.379	1629.203
1650.640	1594.004
1650.900	1572.447
1651.161	1582.041
1651.422	1610.221
1651.683	1621.014
1651.944	1613.446
1652.205	1615.696
1652.466	1625.396
1652.727	1633.547
1652.988	1628.035
1653.249	1599.358
1653.509	1567.542
1653.770	1564.402
1654.031	1592.434
1654.292	1622.943
1654.553	1628.118
1654.814	1623.233
1655.075	1620.442
1655.336	1619.797
1655.597	1620.010
1655.858	1619.292
1656.118	1608.002
1656.379	1595.988
1656.640	1591.732
1656.901	1595.899
1657.162	1602.716
1657.423	1601.327
1657.684	1602.170
1657.945	1602.843
1658.206	1600.308
1658.467	1596.106
1658.727	1590.356
1658.988	1581.353
1659.249	1572.619
1659.510	1566.771
1659.771	1566.174
1660.032	1568.705
1660.293	1568.897
1660.554	1569.078
1660.815	1563.121
1661.076	1552.972
1661.336	1547.075
1661.597	1547.930
1661.858	1546.377
1662.119	1539.302
1662.380	1537.020
1662.641	1544.224
1662.902	1551.399
1663.163	1548.400
1663.424	1543.611
1663.684	1544.541
1663.945	1549.282
1664.206	1551.846
1664.467	1549.812
1664.728	1544.867
1664.989	1511.585
1665.250	1445.333
1665.511	1381.038
1665.772	1357.140
1666.033	1379.136
1666.294	1415.370
1666.554	1449.066
1666.815	1472.622
1667.076	1486.340
1667.337	1496.295
1667.598	1503.607
1667.859	1504.613
1668.120	1500.384
1668.381	1493.256
1668.642	1488.174
1668.903	1484.873
1669.163	1482.611
1669.424	1481.320
1669.685	1479.412
1669.946	1478.716
1670.207	1473.647
1670.468	1467.597
1670.729	1463.637
1670.990	1458.939
1671.251	1453.746
1671.512	1450.185
1671.772	1451.730
1672.033	1453.923
1672.294	1452.571
1672.555	1450.373
1672.816	1447.965
1673.077	1445.493
1673.338	1442.464
1673.599	1438.803
1673.860	1432.064
1674.121	1417.634
1674.381	1407.954
1674.642	1409.496
1674.903	1417.362
1675.164	1418.911
1675.425	1413.868
1675.686	1412.118
1675.947	1411.571
1676.208	1410.031
1676.469	1403.796
1676.730	1397.635
1676.990	1389.363
1677.251	1370.946
1677.512	1355.713
1677.773	1354.647
1678.034	1362.538
1678.295	1367.722
1678.556	1365.694
1678.817	1367.796
1679.078	1368.828
1679.338	1363.795
1679.599	1355.673
1679.860	1348.665
1680.121	1344.889
1680.382	1333.253
1680.643	1320.283
1680.904	1314.883
1681.165	1319.084
1681.426	1323.963
1681.687	1320.690
1681.948	1318.710
1682.208	1316.934
1682.469	1313.335
1682.730	1308.592
1682.991	1302.440
1683.252	1295.866
1683.513	1276.153
1683.774	1244.105
1684.035	1225.998
1684.296	1235.954
1684.557	1259.786
1684.817	1269.012
1685.078	1263.837
1685.339	1257.906
1685.600	1252.768
1685.861	1248.794
1686.122	1245.549
1686.383	1242.347
1686.644	1234.765
1686.905	1216.552
1687.166	1201.525
1687.426	1200.685
1687.687	1211.417
1687.948	1219.677
1688.209	1218.281
1688.470	1215.525
1688.731	1212.207
1688.992	1207.589
1689.253	1202.962
1689.514	1200.307
1689.775	1199.815
1690.035	1187.343
1690.296	1155.798
1690.557	1126.979
1690.818	1125.517
1691.079	1138.552
1691.340	1144.645
1691.601	1144.023
1691.862	1146.115
1692.123	1149.123
1692.384	1146.154
1692.644	1145.120
1692.905	1145.217
1693.166	1142.471
1693.427	1134.458
1693.688	1119.436
1693.949	1105.650
1694.210	1100.729
1694.471	1103.621
1694.732	1106.678
1694.993	1105.406
1695.253	1104.631
1695.514	1103.417
1695.775	1100.799
1696.036	1096.620
1696.297	1077.395
1696.558	1050.458
1696.819	1015.545
1697.080	997.052
1697.341	1009.799
1697.602	1037.862
1697.862	1063.548
1698.123	1065.521
1698.384	1061.121
1698.645	1057.016
1698.906	1052.464
1699.167	1039.598
1699.428	1024.504
1699.689	1017.027
1699.950	1020.386
1700.211	1027.139
1700.471	1010.729
1700.732	983.238
1700.993	972.131
1701.254	986.825
1701.515	1009.833
1701.776	1015.848
1702.037	1012.658
1702.298	1007.148
1702.559	1000.562
1702.820	995.875
1703.080	987.834
1703.341	979.202
1703.602	975.859
1703.863	980.078
1704.124	984.586
1704.385	982.456
1704.646	979.194
1704.907	973.359
1705.168	965.203
1705.429	960.078
1705.689	954.187
1705.950	946.884
1706.211	938.414
1706.472	928.546
1706.733	923.803
1706.994	920.988
1707.255	913.990
1707.516	906.038
1707.777	902.059
1708.038	898.312
1708.298	859.851
1708.559	813.346
1708.820	812.055
1709.081	854.141
1709.342	895.866
1709.603	903.004
1709.864	900.118
1710.125	891.962
1710.386	879.186
1710.647	872.601
1710.907	876.359
1711.168	884.991
1711.429	888.375
1711.690	885.756
1711.951	880.989
1712.212	876.205
1712.473	873.484
1712.734	870.741
1712.995	866.471
1713.256	861.968
1713.516	851.618
1713.777	825.283
1714.038	783.589
1714.299	755.190
1714.560	766.565
1714.821	803.713
1715.082	834.720
1715.343	844.661
1715.604	828.387
1715.865	798.460
1716.125	782.778
1716.386	796.154
1716.647	821.987
1716.908	832.055
1717.169	830.171
1717.430	829.266
1717.691	827.692
1717.952	824.067
1718.213	820.357
1718.474	817.122
1718.734	814.918
1718.995	813.294
1719.256	811.580
1719.517	808.189
1719.778	802.546
1720.039	797.149
1720.300	793.214
1720.561	787.300
1720.822	740.036
1721.083	665.140
1721.343	634.130
1721.604	675.423
1721.865	743.397
1722.126	770.267
1722.387	766.941
1722.648	763.956
1722.909	758.943
1723.170	724.804
1723.431	691.154
1723.692	685.957
1723.952	689.441
1724.213	675.293
1724.474	643.617
1724.735	652.163
1724.996	693.018
1725.257	727.228
1725.518	741.497
1725.779	726.640
1726.040	708.883
1726.301	705.569
1726.561	717.225
1726.822	728.025
1727.083	725.405
1727.344	722.677
1727.605	721.340
1727.866	718.713
1728.127	703.247
1728.388	675.551
1728.649	649.953
1728.910	649.375
1729.170	673.017
1729.431	696.204
1729.692	706.274
1729.953	704.583
1730.214	700.221
1730.475	694.300
1730.736	689.654
1730.997	687.164
1731.258	684.134
1731.519	652.558
1731.779	590.517
1732.040	518.241
1732.301	502.332
1732.562	555.355
1732.823	622.786
1733.084	662.947
1733.345	663.692
1733.606	660.833
1733.867	656.375
1734.128	652.340
1734.388	649.389
1734.649	646.316
1734.910	642.911
1735.171	620.311
1735.432	589.091
1735.693	551.821
1735.954	538.368
1736.215	541.157
1736.476	527.679
1736.737	526.188
1736.997	545.430
1737.258	588.498
1737.519	612.517
1737.780	607.831
1738.041	603.082
1738.302	601.736
1738.563	601.651
1738.824	600.963
1739.085	598.743
1739.346	575.034
1739.606	540.801
1739.867	523.095
1740.128	536.900
1740.389	564.240
1740.650	564.677
1740.911	514.638
1741.172	454.098
1741.433	432.550
1741.694	468.470
1741.955	523.949
1742.215	552.285
1742.476	563.243
1742.737	559.581
1742.998	555.554
1743.259	553.489
1743.520	552.309
1743.781	545.177
1744.042	501.983
1744.303	458.187
1744.564	453.943
1744.824	489.909
1745.085	526.549
1745.346	528.419
1745.607	523.998
1745.868	516.743
1746.129	494.850
1746.390	433.985
1746.651	353.038
1746.912	297.321
1747.173	301.174
1747.433	359.423
1747.694	426.276
1747.955	474.320
1748.216	491.585
1748.477	490.967
1748.738	487.837
1748.999	483.200
1749.260	479.466
1749.521	477.800
1749.782	477.591
1750.042	475.937
1750.303	470.418
1750.564	463.325
1750.825	455.659
1751.086	417.709
1751.347	370.208
1751.608	357.227
1751.869	391.384
1752.130	435.204
1752.391	439.654
1752.651	431.868
1752.912	430.434
1753.173	434.989
1753.434	438.720
1753.695	435.875
1753.956	432.054
1754.217	427.849
1754.478	418.728
1754.739	374.775
1755.000	326.522
1755.260	316.888
1755.521	352.327
1755.782	393.920
1756.043	400.406
1756.304	378.529
1756.565	338.437
1756.826	310.752
1757.087	288.732
1757.348	286.698
1757.609	306.444
1757.869	345.398
1758.130	380.607
1758.391	384.248
1758.652	382.768
1758.913	380.934
1759.174	378.821
1759.435	376.204
1759.696	372.267
1759.957	367.947
1760.218	363.527
1760.478	346.930
1760.739	311.877
1761.000	288.879
1761.261	298.509
1761.522	327.430
1761.783	342.218
1762.044	320.502
1762.305	293.736
1762.566	269.617
1762.827	256.219
1763.087	261.256
1763.348	278.237
1763.609	304.146
1763.870	315.179
1764.131	312.891
1764.392	308.103
1764.653	302.856
1764.914	294.729
1765.175	265.921
1765.436	198.954
1765.696	128.959
1765.957	115.132
1766.218	167.182
1766.479	231.356
1766.740	259.299
1767.001	261.519
1767.262	260.298
1767.523	259.240
1767.784	252.585
1768.045	242.465
1768.305	236.952
1768.566	234.975
1768.827	230.623
1769.088	220.650
1769.349	202.386
1769.610	185.871
1769.871	182.292
1770.132	185.457
1770.393	175.841
1770.654	159.980
1770.914	160.637
1771.175	178.061
1771.436	191.551
1771.697	190.412
1771.958	185.053
1772.219	176.654
1772.480	168.933
1772.741	163.726
1773.002	161.370
1773.263	157.311
1773.523	139.367
1773.784	113.835
1774.045	93.056
1774.306	92.049
1774.567	104.227
1774.828	114.819
1775.089	119.971
1775.350	114.685
1775.611	101.427
1775.872	79.814
1776.132	65.788
1776.393	68.407
1776.654	80.257
1776.915	89.903
1777.176	91.510
1777.437	89.498
1777.698	85.486
1777.959	75.501
1778.220	62.045
1778.481	45.750
1778.741	34.439
1779.002	36.516
1779.263	46.825
1779.524	56.938
1779.785	59.350
1780.046	57.739
1780.307	55.717
1780.568	51.175
1780.829	39.901
1781.090	27.762
1781.350	22.330
1781.611	26.753
1781.872	34.807
1782.133	38.247
1782.394	38.397
1782.655	36.723
1782.916	34.611
1783.177	32.198
1783.438	29.334
1783.699	25.859
1783.959	21.774
1784.220	16.788
1784.481	11.539
1784.742	8.224
1785.003	9.158
1785.264	12.782
1785.525	13.796
1785.786	11.745
1786.047	10.566
1786.308	11.994
1786.568	12.910
1786.829	11.233
1787.090	9.231
1787.351	8.831
1787.612	10.252
1787.873	11.588
1788.134	11.742
1788.395	10.578
1788.656	9.092
1788.917	8.350
1789.177	8.537
1789.438	8.855
1789.699	8.413
1789.960	7.354
1790.221	5.920
1790.482	4.279
1790.743	3.219
1791.004	2.907
1791.265	3.176
1791.526	3.536
1791.786	3.365
1792.047	2.921
1792.308	2.316
1792.569	2.153
1792.830	2.227
1793.091	2.054
1793.352	1.555
1793.613	0.974
1793.874	0.869
1794.135	1.155
1794.395	1.423
1794.656	1.515
1794.917	1.280
1795.178	1.053
1795.439	0.999
1795.700	0.997
1795.961	0.902
1796.222	0.749
1796.483	0.645
1796.744	0.535
1797.004	0.442
1797.265	0.458
1797.526	0.512
1797.787	0.423
1798.048	0.294
1798.309	0.244
1798.570	0.256
1798.831	0.249
1799.092	0.187
1799.353	0.116
1799.613	0.056
1799.874	0.017
1800.135	0.002
1800.396	0.000
1800.657	0.000
1800.918	0.000
1801.179	0.000
1801.440	0.000
1801.701	0.000
1801.962	0.000
1802.222	0.000
1802.483	0.000
1802.744	0.000
1803.005	0.000
1803.266	0.000
1803.527	0.000
1803.788	0.000
1804.049	0.000
1804.310	0.000
1804.571	0.000
1804.831	0.000
1805.092	0.000
1805.353	0.000
1805.614	0.000
1805.875	0.000
1806.136	0.000
1806.397	0.000
1806.658	0.000
1806.919	0.000
1807.180	0.000
1807.440	0.000
1807.701	0.000
1807.962	0.000
1808.223	0.000
1808.484	0.000
1808.745	0.000
1809.006	0.000
1809.267	0.000
1809.528	0.000
1809.789	0.000
1810.049	0.000
1810.310	0.000
1810.571	0.000
1810.832	0.000
1811.093	0.000
1811.354	0.000
1811.615	0.000
1811.876	0.000
1812.137	0.000
1812.398	0.000
1812.658	0.000
1812.919	0.000
1813.180	0.000
1813.441	0.000
1813.702	0.000
1813.963	0.000
1814.224	0.000
1814.485	0.000
1814.746	0.000
1815.007	0.000
1815.267	0.000
1815.528	0.000
1815.789	0.000
1816.050	0.000
1816.311	0.000
1816.572	0.000
1816.833	0.000
1817.094	0.000
1817.355	0.000
1817.615	0.000
1817.876	0.000
1818.137	0.000
1818.398	0.000
1818.659	0.000
1818.920	0.000
1819.181	0.000
1819.442	0.000
1819.703	0.000
1819.964	0.000
1820.225	0.000
1820.485	0.000
1820.746	0.000
1821.007	0.000
1821.268	0.000
1821.529	0.000
1821.790	0.000
1822.051	0.000
1822.312	0.000
1822.573	0.000
1822.834	0.000
1823.094	0.000
1823.355	0.000
1823.616	0.000
1823.877	0.000
1824.138	0.000
1824.399	0.000
1824.660	0.000
1824.921	0.000
1825.182	0.000
1825.443	0.000
1825.703	0.000
1825.964	0.000
1826.225	0.000
1826.486	0.000
1826.747	0.000
1827.008	0.000
1827.269	0.000
1827.530	0.000
1827.791	0.000
1828.052	0.000
1828.312	0.000
1828.573	0.000
1828.834	0.000
1829.095	0.000
1829.356	0.000
1829.617	0.000
1829.878	0.000
1830.139	0.000
1830.400	0.000
1830.661	0.000
1830.921	0.000
1831.182	0.000
1831.443	0.000
1831.704	0.000
1831.965	0.000
1832.226	0.000
1832.487	0.000
1832.748	0.000
1833.009	0.000
1833.269	0.000
1833.530	0.000
1833.791	0.000
1834.052	0.000
1834.313	0.000
1834.574	0.000
1834.835	0.000
1835.096	0.000
1835.357	0.000
1835.618	0.000
1835.879	0.000
1836.139	0.000
1836.400	0.000
1836.661	0.000
1836.922	0.000
1837.183	0.000
1837.444	0.000
1837.705	0.000
1837.966	0.000
1838.227	0.000
1838.488	0.000
1838.748	0.000
1839.009	0.000
1839.270	0.000
1839.531	0.000
1839.792	0.000
1840.053	0.000
1840.314	0.000
1840.575	0.000
1840.836	0.000
1841.097	0.000
1841.357	0.000
1841.618	0.000
1841.879	0.000
1842.140	0.000
1842.401	0.000
1842.662	0.000
1842.923	0.000
1843.184	0.000
1843.445	0.000
1843.706	0.000
1843.966	0.000
1844.227	0.000
1844.488	0.000
1844.749	0.000
1845.010	0.000
1845.271	0.000
1845.532	0.000
1845.793	0.000
1846.054	0.000
1846.315	0.000
1846.575	0.000
1846.836	0.000
1847.097	0.000
1847.358	0.000
1847.619	0.000
1847.880	0.000
1848.141	0.000
1848.402	0.000
1848.663	0.000
1848.923	0.000
1849.184	0.000
1849.445	0.000
1849.706	0.000
1849.967	0.000
1850.228	0.000
1850.489	0.000
1850.750	0.000
1851.011	0.000
1851.272	0.000
1851.533	0.000
1851.793	0.000
1852.054	0.000
1852.315	0.000
1852.576	0.000
1852.837	0.000
1853.098	0.000
1853.359	0.000
1853.620	0.000
1853.881	0.000
1854.142	0.000
1854.402	0.000
1854.663	0.000
1854.924	0.000
1855.185	0.000
1855.446	0.000
1855.707	0.000
1855.968	0.000
1856.229	0.000
1856.490	0.000
1856.751	0.000
1857.011	0.000
1857.272	0.000
1857.533	0.000
1857.794	0.000
1858.055	0.000
1858.316	0.000
1858.577	0.000
1858.838	0.000
1859.099	0.000
1859.360	0.000
1859.620	0.000
1859.881	0.000
1860.142	0.000
1860.403	0.000
1860.664	0.000
1860.925	0.000
1861.186	0.000
1861.447	0.000
1861.708	0.000
1861.969	0.000
1862.229	0.000
1862.490	0.000
1862.751	0.000
1863.012	0.000
1863.273	0.000
1863.534	0.000
1863.795	0.000
1864.056	0.000
1864.317	0.000
1864.577	0.000
1864.838	0.000
1865.099	0.000
1865.360	0.000
1865.621	0.000
1865.882	0.000
1866.143	0.000
1866.404	0.000
1866.665	0.000
1866.926	0.000
1867.187	0.000
1867.447	0.000
1867.708	0.000
1867.969	0.000
1868.230	0.000
1868.491	0.000
1868.752	0.000
1869.013	0.000
1869.274	0.000
1869.535	0.000
1869.796	0.000
1870.056	0.000
1870.317	0.000
1870.578	0.000
1870.839	0.000
1871.100	0.000
1871.361	0.000
1871.622	0.000
1871.883	0.000
1872.144	0.000
1872.405	0.000
1872.665	0.000
1872.926	0.000
1873.187	0.000
1873.448	0.000
1873.709	0.000
1873.970	0.000
1874.231	0.000
1874.492	0.000
1874.753	0.000
1875.014	0.000
1875.274	0.000
1875.535	0.000
1875.796	0.000
1876.057	0.000
1876.318	0.000
1876.579	0.000
1876.840	0.000
1877.101	0.000
1877.362	0.000
1877.623	0.000
1877.883	0.000
1878.144	0.000
1878.405	0.000
1878.666	0.000
1878.927	0.000
1879.188	0.000
1879.449	0.000
1879.710	0.000
1879.971	0.000
1880.231	0.000
1880.492	0.000
1880.753	0.000
1881.014	0.000
1881.275	0.000
1881.536	0.000
1881.797	0.000
1882.058	0.000
1882.319	0.000
1882.580	0.000
1882.841	0.000
1883.101	0.000
1883.362	0.000
1883.623	0.000
1883.884	0.000
1884.145	0.000
1884.406	0.000
1884.667	0.000
1884.928	0.000
1885.189	0.000
1885.450	0.000
1885.710	0.000
1885.971	0.000
1886.232	0.000
1886.493	0.000
1886.754	0.000
1887.015	0.000
1887.276	0.000
1887.537	0.000
1887.798	0.000
1888.059	0.000
1888.319	0.000
1888.580	0.000
1888.841	0.000
1889.102	0.000
1889.363	0.000
1889.624	0.000
1889.885	0.000
1890.146	0.000
1890.407	0.000
1890.668	0.000
1890.928	0.000
1891.189	0.000
1891.450	0.000
1891.711	0.000
1891.972	0.000
1892.233	0.000
1892.494	0.000
1892.755	0.000
1893.016	0.000
1893.277	0.000
1893.537	0.000
1893.798	0.000
1894.059	0.000
1894.320	0.000
1894.581	0.000
1894.842	0.000
1895.103	0.000
1895.364	0.000
1895.625	0.000
1895.885	0.000
